Time	keytime	time-time	keypress	target id	target_lon	target_lat	target_x	target_y	target_z	hmd_rx	hmd_ry	hmd_rz	
273.252	0.01188384	269.4254	0	8						0.00602144	-0.002495002	-0.001438231	
273.260	0.02102043	269.4345	0	8						0.006041314	-0.002473927	-0.001445052	
273.271	0.03224965	269.4458	0	8						0.006027341	-0.002456097	-0.001448747	
273.282	0.04292618	269.4564	0	8						0.006030463	-0.002433148	-0.001451569	
273.292	0.05342968	269.4669	0	8						0.006031615	-0.002411618	-0.00144587	
273.304	0.06506306	269.4786	0	8						0.00603928	-0.002398068	-0.001441009	
273.317	0.07810166	269.4916	0	8						0.006033495	-0.002389936	-0.001434378	
273.327	0.08773484	269.5013	0	8						0.006045491	-0.002377014	-0.001424118	
273.339	0.1000019	269.5135	0	8						0.006042939	-0.00238905	-0.001410146	
273.350	0.1099021	269.5234	0	8						0.006043497	-0.002381702	-0.001396345	
273.360	0.1201753	269.5337	0	8						0.006063468	-0.002397289	-0.001370498	
273.371	0.1319308	269.5454	0	8						0.006054332	-0.002393267	-0.001364772	
273.383	0.1435302	269.557	0	8						0.006078386	-0.002401799	-0.001341357	
273.394	0.155256	269.5688	0	8						0.006042435	-0.002416979	-0.001324208	
273.407	0.1680492	269.5815	0	8						0.006044257	-0.002435131	-0.001295482	
273.418	0.1795001	269.593	0	8						0.006025095	-0.002454226	-0.001272878	
273.426	0.1868103	269.6003	0	8						0.006023956	-0.002466549	-0.001240797	
273.438	0.1985385	269.6121	0	8						0.006025452	-0.002477368	-0.001225775	
273.467	0.2285995	269.6421	0	8						0.006012734	-0.002496545	-0.001195447	
273.478	0.2391038	269.6526	0	8						0.005981583	-0.002540287	-0.001147924	
273.486	0.2468727	269.6604	0	8						0.005949184	-0.002561872	-0.001131629	
273.495	0.255374	269.6689	0	8						0.005924087	-0.002580683	-0.001118156	
273.505	0.2652833	269.6788	0	8						0.005941197	-0.002610201	-0.001107853	
273.516	0.2768022	269.6903	0	8						0.005892872	-0.002612236	-0.001108995	
273.527	0.288266	269.7018	0	8						0.005864703	-0.002622146	-0.001100549	
273.537	0.2986368	269.7122	0	8						0.005833277	-0.002627447	-0.001088886	
273.549	0.3099454	269.7234	0	8						0.005811732	-0.002629062	-0.00108556	
273.560	0.3210755	269.7346	0	8						0.005775329	-0.002642318	-0.001078572	
273.571	0.3318864	269.7454	0	8						0.005750947	-0.002661499	-0.001059506	
273.581	0.3423879	269.7559	0	8						0.005727264	-0.002660278	-0.001053514	
273.593	0.3539261	269.7674	0	8						0.005699632	-0.002664489	-0.001034758	
273.604	0.3654804	269.779	0	8						0.00566988	-0.002649492	-0.001012489	
273.615	0.376475	269.79	0	8						0.005643994	-0.002631217	-0.0009794309	
273.626	0.3871515	269.8007	0	8						0.005610891	-0.002613812	-0.0009465071	
273.639	0.3987999	269.8123	0	8						0.005580994	-0.002611	-0.0009283019	
273.648	0.4095744	269.8231	0	8						0.005547233	-0.002598586	-0.0009095654	
273.659	0.4202375	269.8337	0	8						0.005521554	-0.002599974	-0.0008967756	
273.673	0.4336392	269.8471	0	8						0.005504654	-0.002603232	-0.0008900626	
273.682	0.4425624	269.8561	0	8						0.005476583	-0.002612234	-0.0008786422	
273.692	0.4531173	269.8666	0	8						0.005451545	-0.00260593	-0.0008717579	
273.705	0.4660615	269.8796	0	8						0.005431324	-0.002607057	-0.0008822336	
273.716	0.4768794	269.8904	0	8						0.005411841	-0.002602556	-0.0008830987	
273.725	0.4862942	269.8998	0	8						0.005395975	-0.00260689	-0.0008872262	
273.737	0.4984075	269.9119	0	8						0.005378478	-0.002605959	-0.0008933856	
273.748	0.508698	269.9222	0	8						0.005370419	-0.00260359	-0.0008918132	
273.760	0.5204574	269.934	0	8						0.005366874	-0.002614212	-0.0008857989	
273.771	0.5318478	269.9453	0	8						0.005357437	-0.002601878	-0.0009001226	
273.783	0.5441046	269.9576	0	8						0.005334906	-0.002605175	-0.0009069153	
273.792	0.5532234	269.9667	0	8						0.005304802	-0.00260242	-0.0009154271	
273.804	0.5647256	269.9782	0	8						0.005294721	-0.002609651	-0.0009185347	
273.816	0.5766044	269.9901	0	8						0.005280156	-0.002619479	-0.0009232222	
273.827	0.5880552	270.0016	0	8						0.005271025	-0.002621629	-0.0009173008	
273.839	0.5998438	270.0134	0	8						0.005248327	-0.002626289	-0.0009112658	
273.849	0.6096737	270.0232	0	8						0.005235281	-0.002634931	-0.0008991622	
273.859	0.6200465	270.0336	0	8						0.005231634	-0.002633623	-0.0008903021	
273.871	0.6315768	270.0451	0	8						0.005231183	-0.002646483	-0.0008720151	
273.882	0.6432018	270.0567	0	8						0.005194701	-0.00264542	-0.0008718463	
273.892	0.6535086	270.067	0	8						0.005176348	-0.002648365	-0.000855993	
273.903	0.6647256	270.0782	0	8						0.005162935	-0.002650797	-0.0008513478	
273.915	0.6756044	270.0891	0	8						0.00517127	-0.002680339	-0.000819074	
273.928	0.6875131	270.101	0	8						0.005144995	-0.002666842	-0.0008255562	
273.938	0.6986981	270.1122	0	8						0.005129951	-0.002673323	-0.000818187	
273.949	0.7099475	270.1234	0	8						0.005123015	-0.002685134	-0.0008016238	
273.960	0.7212253	270.1347	0	8						0.005105025	-0.002692922	-0.0007955408	
273.972	0.7334991	270.147	0	8						0.00509166	-0.002689478	-0.0007908296	
273.982	0.7431157	270.1566	0	8						0.005065809	-0.002705424	-0.0007796925	
273.993	0.7539088	270.1674	0	8						0.005054891	-0.002698957	-0.0007830277	
274.003	0.7647287	270.1782	0	8						0.005041079	-0.002697791	-0.0007775584	
274.016	0.7766351	270.1902	0	8						0.005033821	-0.002693627	-0.0007730338	
274.027	0.7884375	270.2019	0	8						0.005010601	-0.002696054	-0.0007702893	
274.037	0.7982966	270.2118	0	8						0.00499799	-0.00269967	-0.0007599336	
274.048	0.8088855	270.2224	0	8						0.004986286	-0.002702968	-0.0007505462	
274.061	0.8221994	270.2357	0	8						0.004977435	-0.002707522	-0.0007280936	
274.071	0.8316746	270.2452	0	8						0.004965585	-0.002712667	-0.0007232425	
274.082	0.8424456	270.256	0	8						0.004952688	-0.002719972	-0.0007077947	
274.093	0.8537194	270.2672	0	8						0.004946758	-0.002734381	-0.0007024511	
274.105	0.8661003	270.2796	0	8						0.004941322	-0.002741109	-0.0006979202	
274.115	0.8762174	270.2897	0	8						0.004928045	-0.002768018	-0.0006805305	
274.126	0.8871918	270.3007	0	8						0.004924577	-0.00277472	-0.0006851067	
274.139	0.9004536	270.314	0	8						0.004920862	-0.002781683	-0.0006822242	
274.149	0.9099449	270.3235	0	8						0.004928284	-0.002786421	-0.0006895635	
274.174	0.9351087	270.3486	0	8						0.004922416	-0.002793807	-0.0006845845	
274.183	0.9435543	270.3571	0	8						0.004924562	-0.002809966	-0.0006793989	
274.192	0.9532539	270.3668	0	8						0.004924615	-0.002810679	-0.0006784506	
274.205	0.9657825	270.3793	0	8						0.004929193	-0.002821477	-0.0006709167	
274.217	0.9771172	270.3906	0	8						0.004925627	-0.002807293	-0.0006734238	
274.226	0.9869854	270.4005	0	8						0.004925457	-0.002808497	-0.0006585735	
274.238	0.9986488	270.4122	0	8						0.004923251	-0.002811983	-0.0006567718	
274.250	1.011165	270.4247	0	8						0.004921827	-0.002812941	-0.0006580903	
274.259	1.020211	270.4337	0	8						0.004916244	-0.002829128	-0.0006560648	
274.270	1.031697	270.4452	0	8						0.004914145	-0.002823964	-0.0006565911	
274.282	1.043619	270.4571	0	8						0.004906119	-0.002807674	-0.0006504697	
274.293	1.054048	270.4676	0	8						0.004902322	-0.002789909	-0.0006427714	
274.304	1.065344	270.4789	0	8						0.004895419	-0.002773304	-0.0006350462	
274.316	1.077196	270.4907	0	8						0.004893657	-0.002752342	-0.0006332748	
274.326	1.086802	270.5003	0	8						0.004878465	-0.002735149	-0.0006308887	
274.342	1.086802	270.5144	1	8	30	0	0.25	0	0.4330127	0.004880387	-0.002714818	-0.0006375274	
274.342	1.100913	270.5144	0	8						0.004880387	-0.002714818	-0.0006375274	
274.353	1.114264	270.5278	0	8						0.004866368	-0.002708705	-0.0006495475	
274.360	1.120913	270.5344	0	8						0.004848008	-0.002705147	-0.0006633326	
274.370	1.131087	270.5446	0	8						0.004848178	-0.002707155	-0.000673585	
274.382	1.14239	270.5559	0	8						0.004846416	-0.002705903	-0.0006914079	
274.392	1.153305	270.5668	0	8						0.004843566	-0.002705698	-0.0007083855	
274.405	1.165335	270.5789	0	8						0.004848383	-0.002712772	-0.0007243375	
274.416	1.17686	270.5904	0	8						0.005088523	-0.002778002	-0.000389596	
274.428	1.189143	270.6027	0	8						0.005366993	-0.002849326	-1.202721E-05	
274.444	1.204599	270.6181	0	8						0.005519581	-0.002879605	0.0001615278	
274.459	1.22007	270.6336	0	8						0.005507135	-0.002864112	8.702425E-05	
274.470	1.230752	270.6443	0	8						0.005461934	-0.002838789	-4.536704E-05	
274.482	1.242818	270.6563	0	8						0.005463791	-0.002826449	-0.000105186	
274.494	1.255635	270.6692	0	8						0.005447629	-0.002811356	-0.0001848592	
274.504	1.264737	270.6783	0	8						0.005434663	-0.002789556	-0.0002733741	
274.514	1.27537	270.6889	0	8						0.005459189	-0.002787834	-0.0003173178	
274.528	1.288502	270.702	0	8						0.005437911	-0.002760703	-0.0003862229	
274.539	1.298949	270.7125	0	8						0.005450753	-0.002742167	-0.0004652861	
274.549	1.31023	270.7237	0	8						0.005419255	-0.002717733	-0.0005405527	
274.559	1.319613	270.7331	0	8						0.005426224	-0.002694403	-0.000589829	
274.572	1.332916	270.7464	0	8						0.005424297	-0.002675003	-0.0006376336	
274.582	1.342638	270.7561	0	8						0.005424677	-0.002656454	-0.0006831842	
274.592	1.353529	270.767	0	8						0.005424421	-0.002643489	-0.0007191923	
274.605	1.365729	270.7792	0	8						0.005431823	-0.002624285	-0.0007609909	
274.615	1.375813	270.7893	0	8						0.005429992	-0.00260217	-0.0008006893	
274.626	1.387013	270.8005	0	8						0.005431014	-0.002592817	-0.0008330637	
274.638	1.398933	270.8124	0	8						0.005435436	-0.002587463	-0.000870704	
274.648	1.409455	270.823	0	8						0.005447824	-0.002579739	-0.0009114236	
274.659	1.420159	270.8337	0	8						0.005470321	-0.002577177	-0.0009437004	
274.670	1.43124	270.8448	0	8						0.005469743	-0.002576613	-0.0009687893	
274.682	1.44266	270.8562	0	8						0.005462703	-0.002563278	-0.001007123	
274.692	1.453288	270.8668	0	8						0.005467736	-0.002564032	-0.001034443	
274.706	1.466406	270.8799	0	8						0.005456757	-0.00255804	-0.001063365	
274.716	1.476541	270.89	0	8						0.005459665	-0.002541257	-0.001093368	
274.725	1.486708	270.9002	0	8						0.005459793	-0.002546043	-0.001102686	
274.736	1.497711	270.9112	0	8						0.005461842	-0.002538617	-0.00111512	
274.748	1.509342	270.9229	0	8						0.005449742	-0.002534256	-0.001122837	
274.760	1.520827	270.9343	0	8						0.005449984	-0.002534704	-0.001127689	
274.771	1.532547	270.946	0	8						0.005447377	-0.00253526	-0.001124964	
274.783	1.544053	270.9576	0	8						0.005449529	-0.002538895	-0.001120152	
274.792	1.553173	270.9667	0	8						0.00545	-0.002533231	-0.001120275	
274.804	1.564517	270.978	0	8						0.005441412	-0.00254299	-0.001114718	
274.816	1.576884	270.9904	0	8						0.00544396	-0.002544686	-0.001110842	
274.826	1.586729	271.0002	0	8						0.005441461	-0.00253625	-0.001107936	
274.838	1.598422	271.0119	0	8						0.005446017	-0.002534089	-0.001107735	
274.849	1.610258	271.0238	0	8						0.005441818	-0.002536382	-0.001103768	
274.860	1.620857	271.0344	0	8						0.005450645	-0.002533967	-0.001100745	
274.886	1.646938	271.0605	0	8						0.005449002	-0.00254476	-0.001090486	
274.896	1.657707	271.0712	0	8						0.005444486	-0.002562101	-0.001069241	
274.906	1.667253	271.0807	0	8						0.00544006	-0.002569428	-0.001064373	
274.916	1.677228	271.0907	0	8						0.005437095	-0.002581043	-0.001058291	
274.924	1.685469	271.099	0	8						0.005425903	-0.002590266	-0.0010539	
274.936	1.696925	271.1104	0	8						0.005428188	-0.002589636	-0.00106082	
274.947	1.708195	271.1217	0	8						0.005403825	-0.002600851	-0.001051418	
274.959	1.719471	271.133	0	8						0.005396015	-0.002596007	-0.001051029	
274.970	1.73104	271.1446	0	8						0.005390829	-0.002586788	-0.001046929	
274.981	1.742147	271.1557	0	8						0.005377546	-0.002580534	-0.001037502	
274.992	1.753015	271.1665	0	8						0.005363144	-0.002578326	-0.001030528	
275.004	1.764655	271.1782	0	8						0.005359855	-0.002586403	-0.001018915	
275.014	1.775053	271.1886	0	8						0.005358583	-0.002585922	-0.001009193	
275.026	1.787358	271.2009	0	8						0.005348429	-0.002579447	-0.0009924796	
275.038	1.798119	271.2116	0	8						0.005335019	-0.002570152	-0.0009709656	
275.048	1.809335	271.2228	0	8						0.005318831	-0.002555786	-0.0009618143	
275.058	1.819187	271.2327	0	8						0.005308896	-0.002563689	-0.0009443964	
275.070	1.831133	271.2446	0	8						0.005309059	-0.002562605	-0.0009454341	
275.081	1.842719	271.2562	0	8						0.00529592	-0.002561997	-0.0009401905	
275.092	1.853415	271.2669	0	8						0.005307104	-0.002569197	-0.0009393608	
275.104	1.865004	271.2785	0	8						0.005310996	-0.002565777	-0.0009534465	
275.115	1.875923	271.2894	0	8						0.005280361	-0.002577096	-0.0009510415	
275.126	1.88705	271.3006	0	8						0.005275174	-0.002589109	-0.0009551453	
275.139	1.899309	271.3128	0	8						0.005262249	-0.00260566	-0.0009613046	
275.149	1.910086	271.3236	0	8						0.005253952	-0.002612601	-0.0009735136	
275.159	1.920145	271.3336	0	8						0.005274568	-0.00261752	-0.00100355	
275.172	1.932893	271.3464	0	8						0.00523934	-0.002618687	-0.001006079	
275.182	1.942552	271.356	0	8						0.005221017	-0.00263067	-0.001014492	
275.193	1.953357	271.3669	0	8						0.005218995	-0.002641444	-0.001022898	
275.205	1.965932	271.3795	0	8						0.005205023	-0.002638339	-0.001034805	
275.215	1.975786	271.3893	0	8						0.005193394	-0.002639821	-0.001046223	
275.226	1.9873	271.4008	0	8						0.005193322	-0.002636964	-0.001063373	
275.237	1.998013	271.4115	0	8						0.005178619	-0.00262413	-0.001081433	
275.250	2.009541	271.423	0	8						0.005185463	-0.00261281	-0.001109007	
275.260	2.020706	271.4342	0	8						0.005184986	-0.002599693	-0.001133908	
275.271	2.032214	271.4457	0	8						0.005183518	-0.002583761	-0.001150303	
275.283	2.043933	271.4574	0	8						0.005190494	-0.002566776	-0.001165669	
275.293	2.053618	271.4671	0	8						0.005192198	-0.002546965	-0.001178736	
275.304	2.064908	271.4784	0	8						0.00518059	-0.002527442	-0.001187169	
275.316	2.076788	271.4903	0	8						0.005185895	-0.00250928	-0.001198632	
275.326	2.08686	271.5004	0	8						0.005176209	-0.002492576	-0.001204448	
275.337	2.09841	271.5119	0	8						0.005167995	-0.002475685	-0.001212524	
275.350	2.110857	271.5244	0	8						0.005185063	-0.002467991	-0.001217269	
275.361	2.121541	271.5351	0	8						0.005178594	-0.002427551	-0.001242302	
275.371	2.131966	271.5455	0	8						0.005197618	-0.002421354	-0.001249971	
275.381	2.14234	271.5558	0	8						0.005201397	-0.002408511	-0.001258313	
275.393	2.153533	271.567	0	8						0.005205392	-0.002387131	-0.001274403	
275.405	2.16583	271.5793	0	8						0.005215361	-0.002381301	-0.001283836	
275.417	2.177867	271.5914	0	8						0.005224802	-0.00236556	-0.001300442	
275.426	2.187219	271.6007	0	8						0.005226844	-0.002348095	-0.001315241	
275.438	2.199485	271.613	0	8						0.00523692	-0.002342302	-0.001320437	
275.448	2.209652	271.6232	0	8						0.005243049	-0.00232986	-0.001325915	
275.459	2.220654	271.6342	0	8						0.005250131	-0.002314724	-0.001333688	
275.472	2.232877	271.6464	0	8						0.005253404	-0.002294332	-0.001340366	
275.483	2.244413	271.6579	0	8						0.005276789	-0.002293148	-0.001335012	
275.493	2.254453	271.668	0	8						0.00527034	-0.002277654	-0.001340772	
275.504	2.26498	271.6785	0	8						0.005268213	-0.002270255	-0.001337631	
275.516	2.276505	271.69	0	8						0.005273182	-0.00226581	-0.001335345	
275.527	2.288413	271.7019	0	8						0.005292613	-0.00227426	-0.001326417	
275.538	2.298727	271.7122	0	8						0.005284338	-0.00227152	-0.001316662	
275.549	2.309947	271.7234	0	8						0.005288318	-0.002272647	-0.001306922	
275.559	2.320384	271.7339	0	8						0.00529654	-0.002283137	-0.00130101	
275.589	2.349261	271.7628	0	8						0.005299886	-0.002290265	-0.001287969	
275.597	2.358409	271.7719	0	8						0.005315833	-0.002318943	-0.001245158	
275.603	2.364369	271.7779	0	8						0.005322326	-0.00232235	-0.001231194	
275.614	2.375598	271.7891	0	8						0.005322251	-0.002345769	-0.001214128	
275.627	2.387414	271.8009	0	8						0.00532179	-0.002358685	-0.001193936	
275.638	2.399458	271.813	0	8						0.005326293	-0.002370739	-0.001168097	
275.649	2.40959	271.8231	0	8						0.005331744	-0.00238131	-0.001146246	
275.659	2.419962	271.8335	0	8						0.005339532	-0.002405306	-0.001116229	
275.671	2.432054	271.8456	0	8						0.005336569	-0.002405159	-0.00110195	
275.681	2.442165	271.8557	0	8						0.005339477	-0.002419293	-0.001073107	
275.693	2.453779	271.8673	0	8						0.005337608	-0.002440314	-0.001053399	
275.705	2.46582	271.8793	0	8						0.005344708	-0.002467996	-0.001020916	
275.715	2.475807	271.8893	0	8						0.005341597	-0.002481728	-0.001005959	
275.726	2.486678	271.9002	0	8						0.005341079	-0.002489988	-0.00098499	
275.738	2.498573	271.9121	0	8						0.005336996	-0.002498649	-0.0009669093	
275.750	2.509642	271.9232	0	8						0.005344197	-0.00251986	-0.0009354605	
275.759	2.520468	271.934	0	8						0.005347469	-0.00253203	-0.0009201616	
275.771	2.532391	271.9459	0	8						0.005334279	-0.002535413	-0.0009100263	
275.782	2.543211	271.9567	0	8						0.005339288	-0.002553446	-0.0008795004	
275.793	2.553934	271.9674	0	8						0.005314405	-0.002552271	-0.0008680042	
275.804	2.564674	271.9782	0	8						0.00532949	-0.002547403	-0.0008394478	
275.816	2.577281	271.9908	0	8						0.005296417	-0.002547308	-0.0008328526	
275.826	2.586845	272.0004	0	8						0.005285002	-0.002538436	-0.0008035122	
275.837	2.598297	272.0118	0	8						0.005272891	-0.002527418	-0.0007899427	
275.849	2.610596	272.0241	0	8						0.005252518	-0.002521701	-0.0007791131	
275.860	2.620834	272.0343	0	8						0.005229853	-0.002521673	-0.0007690731	
275.871	2.6315	272.045	0	8						0.005221486	-0.002536174	-0.0007636513	
275.882	2.642465	272.056	0	8						0.005194295	-0.002525648	-0.0007871884	
275.895	2.654396	272.0679	0	8						0.00516526	-0.002533609	-0.0008005592	
275.905	2.665505	272.079	0	8						0.005136367	-0.002541085	-0.0008204228	
275.916	2.677276	272.0908	0	8						0.005108139	-0.002547714	-0.0008402049	
275.927	2.68703	272.1005	0	8						0.005078376	-0.002565627	-0.0008668427	
275.939	2.699505	272.113	0	8						0.005063191	-0.00257419	-0.000902181	
275.949	2.709826	272.1233	0	8						0.005018848	-0.002570196	-0.0009390238	
275.960	2.721249	272.1348	0	8						0.004973901	-0.002570232	-0.0009524896	
275.971	2.732007	272.1455	0	8						0.004915543	-0.002576575	-0.0009998936	
275.982	2.743294	272.1568	0	8						0.004821482	-0.002580402	-0.001027802	
275.993	2.754583	272.1681	0	8						0.004678011	-0.002558162	-0.001107075	
276.004	2.76504	272.1786	0	8						0.004490405	-0.002534356	-0.001153005	
276.016	2.776845	272.1904	0	8						0.004365079	-0.002494453	-0.001233281	
276.027	2.787755	272.2013	0	8						0.004145242	-0.002491866	-0.001252937	
276.040	2.799816	272.2133	0	8						0.003989768	-0.002434298	-0.001319649	
276.049	2.80968	272.2232	0	8						0.003834517	-0.002386019	-0.00137456	
276.060	2.820733	272.2343	0	8						0.003636026	-0.002366727	-0.001392261	
276.072	2.831801	272.2453	0	8						0.003459234	-0.002302004	-0.00144241	
276.084	2.844235	272.2578	0	8						0.003306903	-0.00224321	-0.001488928	
276.094	2.854936	272.2684	0	8						0.00314397	-0.002225887	-0.001507506	
276.106	2.866565	272.2801	0	8						0.003044166	-0.002118657	-0.001585774	
276.117	2.877382	272.2909	0	8						0.002971176	-0.002065661	-0.001649275	
276.126	2.887349	272.3009	0	8						0.00290041	-0.002044997	-0.001665884	
276.140	2.901204	272.3147	0	8						0.002841978	-0.002008212	-0.001711524	
276.148	2.909614	272.3231	0	8						0.002799157	-0.00194465	-0.001792912	
276.159	2.920284	272.3338	0	8						0.002837639	-0.001890516	-0.001858626	
276.174	2.933769	272.3473	0	8						0.00288181	-0.001840072	-0.001941794	
276.182	2.942829	272.3564	0	8						0.002954904	-0.001827861	-0.00198338	
276.193	2.954082	272.3676	0	8						0.003051319	-0.001768183	-0.002052979	
276.205	2.965801	272.3793	0	8						0.003208231	-0.001689039	-0.00214082	
276.217	2.977001	272.3905	0	8						0.003372468	-0.001666491	-0.002174816	
276.227	2.987461	272.401	0	8						0.003552177	-0.001628973	-0.002232366	
276.238	2.998595	272.4121	0	8						0.003739201	-0.001592682	-0.002312149	
276.250	3.011315	272.4248	0	8						0.003998242	-0.001575357	-0.002390542	
