Time	keytime	time-time	keypress	target id	target_lon	target_lat	target_x	target_y	target_z	hmd_rx	hmd_ry	hmd_rz	
366.189	65.13447	362.0884	0	4						-0.0139172	-0.02024805	0.01406873	
366.211	65.1568	362.1107	0	4						-0.01392642	-0.02024408	0.01406079	
366.231	65.17724	362.1311	0	4						-0.0139113	-0.02025069	0.01402203	
366.253	65.19904	362.153	0	4						-0.01389754	-0.02025677	0.01397797	
366.276	65.22217	362.1761	0	4						-0.01391559	-0.02026756	0.01394474	
366.298	65.2439	362.1978	0	4						-0.01395563	-0.02028864	0.01397472	
366.320	65.26591	362.2198	0	4						-0.01396134	-0.02032016	0.01395044	
366.344	65.28955	362.2434	0	4						-0.01393685	-0.0203283	0.0138957	
366.365	65.31121	362.2651	0	4						-0.01399692	-0.02034817	0.01394294	
366.387	65.33318	362.2871	0	4						-0.01401804	-0.02035884	0.0139536	
366.408	65.3541	362.308	0	4						-0.01400108	-0.02034518	0.01391182	
366.431	65.37714	362.331	0	4						-0.01395624	-0.02031829	0.01384687	
366.455	65.4008	362.3547	0	4						-0.01398967	-0.02030431	0.01384384	
366.481	65.42632	362.3802	0	4						-0.01399381	-0.0202943	0.01385824	
366.497	65.44225	362.3961	0	4						-0.01399747	-0.02027093	0.0138751	
366.519	65.46538	362.4193	0	4						-0.01399097	-0.02025536	0.01388361	
366.541	65.4869	362.4408	0	4						-0.01399497	-0.02024418	0.01391646	
366.564	65.50996	362.4638	0	4						-0.01399906	-0.0202217	0.01393945	
366.586	65.53187	362.4857	0	4						-0.01400167	-0.02019868	0.01396784	
366.609	65.5554	362.5093	0	4						-0.01397747	-0.02018079	0.01396988	
366.637	65.58284	362.5367	0	4						-0.01391562	-0.0201736	0.01393253	
366.653	65.59846	362.5524	0	4						-0.01388078	-0.02016447	0.0139436	
366.675	65.62105	362.575	0	4						-0.01384785	-0.02014708	0.01392805	
366.696	65.64207	362.596	0	4						-0.01380138	-0.02013788	0.01388031	
366.718	65.66432	362.6182	0	4						-0.01377277	-0.0201291	0.01386017	
366.742	65.68753	362.6414	0	4						-0.01377963	-0.02012911	0.01388742	
366.764	65.71002	362.6639	0	4						-0.01378672	-0.02012497	0.01390887	
366.787	65.73339	362.6873	0	4						-0.01377574	-0.0201179	0.01391518	
366.809	65.75447	362.7084	0	4						-0.01378935	-0.0201099	0.01390938	
366.831	65.77691	362.7308	0	4						-0.0137994	-0.02009495	0.01393171	
366.854	65.80002	362.7539	0	4						-0.01375669	-0.02006839	0.01393041	
366.875	65.82119	362.7751	0	4						-0.01376013	-0.02006036	0.01391381	
366.897	65.84314	362.797	0	4						-0.01374778	-0.02006348	0.01391191	
366.921	65.86665	362.8206	0	4						-0.01375705	-0.02007125	0.01392964	
366.950	65.89596	362.8499	0	4						-0.01373059	-0.02007966	0.01391921	
366.964	65.90919	362.8631	0	4						-0.01375151	-0.02011389	0.01398156	
366.987	65.93275	362.8867	0	4						-0.01375132	-0.02012465	0.01399648	
367.006	65.95168	362.9056	0	4						-0.01371436	-0.0201268	0.01396031	
367.030	65.97546	362.9294	0	4						-0.01369171	-0.02013231	0.01394017	
367.051	65.99734	362.9512	0	4						-0.01364832	-0.02013796	0.01392084	
367.077	66.02292	362.9768	0	4						-0.01367547	-0.02014628	0.01399566	
367.103	66.04938	363.0033	0	4						-0.01367076	-0.02013259	0.01402824	
367.118	66.06425	363.0182	0	4						-0.01365622	-0.02014861	0.01402345	
367.142	66.08814	363.042	0	4						-0.01364781	-0.02014725	0.01402491	
367.163	66.10915	363.063	0	4						-0.01366866	-0.02015044	0.01405093	
367.185	66.13091	363.0848	0	4						-0.01367483	-0.02014802	0.0140531	
367.209	66.15454	363.1084	0	4						-0.01370012	-0.02014283	0.01406915	
367.229	66.17477	363.1287	0	4						-0.01374799	-0.02013877	0.01410589	
367.253	66.19929	363.1532	0	4						-0.01376986	-0.0201322	0.01410387	
367.275	66.22124	363.1751	0	4						-0.01378935	-0.02012964	0.01408118	
367.296	66.24221	363.1961	0	4						-0.0137513	-0.02012841	0.01403394	
367.320	66.26646	363.2204	0	4						-0.01374234	-0.02012107	0.0139827	
367.341	66.28688	363.2408	0	4						-0.01376808	-0.02011951	0.01399239	
367.363	66.30896	363.2628	0	4						-0.01375894	-0.02011328	0.0139393	
367.386	66.33199	363.2859	0	4						-0.0137556	-0.02009937	0.01391326	
367.413	66.3592	363.3131	0	4						-0.01375359	-0.020084	0.01389363	
367.432	66.37746	363.3314	0	4						-0.01379981	-0.02008436	0.01391703	
367.449	66.39574	363.3496	0	4						-0.01380563	-0.02009163	0.01390231	
367.473	66.41869	363.3726	0	4						-0.01383244	-0.0200965	0.01390623	
367.497	66.44218	363.3961	0	4						-0.01382494	-0.02008934	0.01385209	
367.518	66.46399	363.4179	0	4						-0.01386863	-0.02009373	0.01389702	
367.546	66.49242	363.4463	0	4						-0.01387756	-0.02007883	0.01390115	
367.568	66.51408	363.468	0	4						-0.01391443	-0.0200517	0.01388741	
367.584	66.52954	363.4834	0	4						-0.01389986	-0.02004448	0.01383557	
367.606	66.55145	363.5053	0	4						-0.01390498	-0.02003048	0.01382821	
367.627	66.57336	363.5273	0	4						-0.01393252	-0.02004007	0.01383551	
367.650	66.59592	363.5498	0	4						-0.01398677	-0.02005658	0.01387595	
367.675	66.62114	363.575	0	4						-0.01401876	-0.02006835	0.01386644	
367.697	66.64285	363.5967	0	4						-0.01405654	-0.02008571	0.01385881	
367.727	66.67271	363.6266	0	4						-0.01411722	-0.02010279	0.01389702	
367.741	66.68613	363.64	0	4						-0.01413855	-0.02013102	0.01390082	
367.763	66.70927	363.6631	0	4						-0.01414611	-0.02013363	0.01390677	
367.785	66.73123	363.6851	0	4						-0.01413822	-0.02012438	0.01387447	
367.806	66.75267	363.7065	0	4						-0.01416573	-0.0201392	0.01392493	
367.828	66.7746	363.7285	0	4						-0.01417974	-0.0201639	0.01392347	
367.851	66.79766	363.7516	0	4						-0.01413906	-0.02016175	0.01386275	
367.875	66.82059	363.7745	0	4						-0.01407989	-0.02016424	0.01380051	
367.899	66.84451	363.7984	0	4						-0.01404748	-0.02016403	0.01377937	
367.921	66.8667	363.8206	0	4						-0.0139867	-0.02016247	0.01372578	
367.941	66.88709	363.841	0	4						-0.01398049	-0.02017459	0.01374216	
367.964	66.90979	363.8637	0	4						-0.01394701	-0.02015795	0.01372098	
367.985	66.93162	363.8855	0	4						-0.01395711	-0.02016199	0.01374793	
368.007	66.95316	363.907	0	4						-0.01395591	-0.02017088	0.01377522	
368.037	66.98352	363.9374	0	4						-0.01395156	-0.02016793	0.01379264	
368.053	66.99927	363.9532	0	4						-0.01392318	-0.02016904	0.01378631	
368.075	67.02124	363.9751	0	4						-0.01390451	-0.02016404	0.01378625	
368.097	67.04343	363.9973	0	4						-0.01387032	-0.02018485	0.01378173	
368.118	67.06413	364.018	0	4						-0.01379998	-0.02019391	0.01370937	
368.142	67.08749	364.0414	0	4						-0.01378815	-0.02021837	0.01370157	
368.163	67.10966	364.0635	0	4						-0.01375842	-0.02022308	0.01372268	
368.188	67.13374	364.0876	0	4						-0.01372349	-0.0202183	0.01376873	
368.208	67.15408	364.108	0	4						-0.01371576	-0.02024401	0.01379607	
368.232	67.17706	364.131	0	4						-0.01374815	-0.02024319	0.01380113	
368.253	67.19843	364.1523	0	4						-0.01377263	-0.02024576	0.01382213	
368.274	67.22042	364.1743	0	4						-0.01379867	-0.02025306	0.01387378	
368.297	67.24296	364.1968	0	4						-0.01379908	-0.02025746	0.01392449	
368.320	67.26616	364.22	0	4						-0.0138502	-0.02025724	0.01400979	
368.342	67.28783	364.2417	0	4						-0.01389148	-0.02022564	0.01400716	
368.364	67.31049	364.2644	0	4						-0.01391426	-0.02022776	0.01400002	
368.385	67.33123	364.2851	0	4						-0.01396854	-0.02023678	0.01406983	
368.408	67.35362	364.3075	0	4						-0.01401781	-0.02025714	0.01412408	
368.433	67.37892	364.3328	0	4						-0.01407575	-0.02027697	0.01415481	
368.452	67.39846	364.3523	0	4						-0.01411066	-0.02026317	0.01411676	
368.475	67.4211	364.375	0	4						-0.01412533	-0.02024985	0.01408419	
368.498	67.44398	364.3979	0	4						-0.0141545	-0.02024194	0.01409159	
368.519	67.465	364.4189	0	4						-0.01415219	-0.02023212	0.01408866	
368.543	67.48908	364.443	0	4						-0.01415716	-0.02021726	0.01407577	
368.566	67.51141	364.4653	0	4						-0.01418704	-0.02020069	0.01406169	
368.587	67.53329	364.4872	0	4						-0.01417821	-0.02017997	0.01400617	
368.609	67.55451	364.5084	0	4						-0.0141419	-0.02017591	0.01394187	
368.632	67.57761	364.5315	0	4						-0.01409408	-0.02017084	0.01387573	
368.661	67.60683	364.5607	0	4						-0.01406118	-0.02015863	0.01382851	
368.675	67.6216	364.5755	0	4						-0.01407697	-0.0201542	0.01383738	
368.698	67.64385	364.5977	0	4						-0.01408578	-0.02015618	0.01383853	
368.720	67.66618	364.6201	0	4						-0.01409781	-0.02016621	0.0138396	
368.742	67.68847	364.6424	0	4						-0.01408779	-0.02017357	0.01382861	
368.767	67.71204	364.6659	0	4						-0.01401701	-0.02017691	0.01373593	
368.789	67.73431	364.6882	0	4						-0.0140296	-0.02019469	0.01375081	
368.816	67.76147	364.7154	0	4						-0.01402857	-0.02022089	0.01376694	
368.831	67.77701	364.7309	0	4						-0.01404273	-0.0202467	0.01381149	
368.854	67.8004	364.7543	0	4						-0.014019	-0.02024047	0.01380941	
368.874	67.81994	364.7738	0	4						-0.01400521	-0.02023179	0.01382389	
368.896	67.84216	364.796	0	4						-0.01393328	-0.02019199	0.01373207	
368.921	67.86669	364.8206	0	4						-0.01386309	-0.02018258	0.01367	
368.943	67.88847	364.8423	0	4						-0.01384081	-0.02018953	0.013655	
368.963	67.9093	364.8632	0	4						-0.01377035	-0.02019135	0.01359699	
368.986	67.93205	364.8859	0	4						-0.0137614	-0.02019395	0.01361277	
369.010	67.95618	364.91	0	4						-0.01371759	-0.02019526	0.01359923	
369.032	67.97823	364.9321	0	4						-0.01367426	-0.02018982	0.01354606	
369.053	67.99957	364.9534	0	4						-0.01369675	-0.02021045	0.01360865	
369.075	68.02114	364.975	0	4						-0.0137509	-0.02022449	0.01367481	
369.096	68.04274	364.9966	0	4						-0.01379985	-0.02023751	0.01374173	
369.122	68.06775	365.0216	0	4						-0.01381981	-0.02025568	0.01376507	
369.141	68.08755	365.0414	0	4						-0.01383873	-0.02027572	0.01377878	
369.165	68.11076	365.0646	0	4						-0.01384759	-0.02028387	0.01376715	
369.189	68.13458	365.0884	0	4						-0.01390641	-0.02030777	0.01381665	
369.209	68.15549	365.1093	0	4						-0.01392175	-0.02030843	0.01381329	
369.232	68.17767	365.1315	0	4						-0.01395631	-0.02032386	0.01383672	
369.253	68.19933	365.1532	0	4						-0.01395084	-0.02031849	0.01381897	
369.284	68.22961	365.1835	0	4						-0.01398123	-0.0203039	0.0138338	
369.302	68.24734	365.2012	0	4						-0.01404179	-0.02028019	0.01387126	
369.321	68.26732	365.2212	0	4						-0.01405249	-0.02026883	0.01385713	
369.343	68.28908	365.2429	0	4						-0.01404986	-0.02025303	0.01381419	
369.364	68.31027	365.2641	0	4						-0.01405153	-0.02025174	0.01380384	
369.387	68.33356	365.2874	0	4						-0.0140493	-0.02023509	0.01378309	
369.409	68.35568	365.3095	0	4						-0.01407828	-0.02021498	0.01381492	
369.436	68.38216	365.336	0	4						-0.01406948	-0.0202032	0.01379966	
369.455	68.40103	365.3549	0	4						-0.01408001	-0.02020096	0.01378516	
369.478	68.42385	365.3777	0	4						-0.01406952	-0.02019741	0.01375597	
369.503	68.44863	365.4025	0	4						-0.01404294	-0.02019553	0.01371591	
369.524	68.46999	365.4239	0	4						-0.01401663	-0.02019899	0.01369548	
369.546	68.49136	365.4452	0	4						-0.01398534	-0.02018371	0.01365156	
369.568	68.51378	365.4677	0	4						-0.01391527	-0.02014678	0.0135826	
369.598	68.54432	365.4982	0	4						-0.01390174	-0.02013669	0.01356812	
369.614	68.55917	365.513	0	4						-0.01395383	-0.02011312	0.01363137	
369.634	68.5796	365.5335	0	4						-0.01398049	-0.02008992	0.01366108	
369.653	68.59893	365.5528	0	4						-0.01402287	-0.02009689	0.01371092	
369.675	68.62077	365.5746	0	4						-0.0140727	-0.02010037	0.01375948	
369.699	68.64507	365.5989	0	4						-0.01408435	-0.02010907	0.01376319	
369.719	68.66559	365.6194	0	4						-0.01408185	-0.02012196	0.01376907	
369.751	68.69665	365.6505	0	4						-0.01405496	-0.02012093	0.01371642	
369.766	68.71222	365.6661	0	4						-0.01408309	-0.02014777	0.01372524	
369.787	68.73316	365.687	0	4						-0.0140889	-0.02016153	0.01370048	
369.808	68.75416	365.708	0	4						-0.01410459	-0.02018915	0.01373362	
369.831	68.77748	365.7314	0	4						-0.0141095	-0.02020454	0.01373908	
369.853	68.7993	365.7532	0	4						-0.01411505	-0.02022592	0.01373826	
369.876	68.82252	365.7764	0	4						-0.01409069	-0.0202419	0.01369449	
369.898	68.84445	365.7983	0	4						-0.01408604	-0.02025302	0.01368165	
369.922	68.86816	365.8221	0	4						-0.01407276	-0.02025857	0.0136736	
369.942	68.88787	365.8417	0	4						-0.01410383	-0.02028091	0.01374501	
369.965	68.91069	365.8646	0	4						-0.01407876	-0.02029582	0.01373581	
369.988	68.9339	365.8878	0	4						-0.01405435	-0.02029635	0.01372537	
370.009	68.95549	365.9094	0	4						-0.01404247	-0.02029292	0.01372067	
370.033	68.97881	365.9327	0	4						-0.01401496	-0.02028795	0.01369489	
370.059	69.0056	365.9595	0	4						-0.01405127	-0.02030198	0.01374385	
370.076	69.02181	365.9757	0	4						-0.01407718	-0.02030514	0.01377931	
370.114	69.05991	366.0138	0	4						-0.01409673	-0.02031021	0.01380395	
370.129	69.0752	366.0291	0	4						-0.0140933	-0.02029567	0.01380085	
370.149	69.09515	366.049	0	4						-0.01409166	-0.02028959	0.01379232	
370.170	69.11592	366.0698	0	4						-0.01407532	-0.02028809	0.01377232	
370.192	69.13748	366.0914	0	4						-0.01407426	-0.02029373	0.01377511	
370.217	69.16349	366.1174	0	4						-0.01412079	-0.02030476	0.01382958	
370.234	69.1801	366.134	0	4						-0.01414912	-0.02031417	0.0138581	
370.255	69.20089	366.1548	0	4						-0.01415401	-0.0203259	0.01385134	
370.278	69.22413	366.178	0	4						-0.01413184	-0.02032982	0.01382879	
370.301	69.22413	366.2002	1	4	90	-30	0.6062177	-0.35	-2.649862E-08	-0.01412912	-0.02033427	0.01380871	
370.301	69.24628	366.2002	0	4						-0.01412912	-0.02033427	0.01380871	
370.321	69.26665	366.2206	0	4						-0.01410113	-0.02032406	0.01378203	
370.345	69.29047	366.2444	0	4						-0.01406604	-0.02030644	0.01374741	
370.371	69.31718	366.2711	0	4						-0.0140202	-0.02029211	0.01369602	
370.389	69.33517	366.2891	0	4						-0.01402353	-0.02027556	0.01367209	
370.409	69.35428	366.3082	0	4						-0.01401296	-0.02026256	0.01365535	
370.428	69.3744	366.3283	0	4						-0.01399451	-0.02024614	0.01362356	
370.451	69.39755	366.3514	0	4						-0.01396864	-0.02021954	0.01360086	
370.476	69.42154	366.3754	0	4						-0.0139554	-0.02020708	0.01361893	
370.497	69.4427	366.3966	0	4						-0.01390816	-0.02019325	0.01361091	
370.520	69.46574	366.4196	0	4						-0.01390707	-0.02019191	0.01364933	
370.543	69.48847	366.4424	0	4						-0.01393204	-0.02020719	0.01369198	
370.564	69.50947	366.4634	0	4						-0.01387412	-0.02020863	0.01364457	
370.587	69.53304	366.4869	0	4						-0.01383397	-0.0202093	0.0136178	
370.607	69.55368	366.5076	0	4						-0.01376559	-0.0202198	0.01357149	
370.630	69.57656	366.5305	0	4						-0.0137876	-0.0202306	0.01361134	
370.652	69.59832	366.5522	0	4						-0.01379167	-0.02022852	0.01363697	
370.675	69.62073	366.5746	0	4						-0.01379404	-0.0202294	0.01366044	
370.698	69.64461	366.5985	0	4						-0.01379672	-0.0202228	0.01367322	
370.720	69.66626	366.6201	0	4						-0.01381915	-0.02022211	0.01369993	
370.743	69.68893	366.6428	0	4						-0.0137721	-0.0202053	0.01363751	
370.765	69.71054	366.6644	0	4						-0.01378231	-0.02019509	0.01364569	
370.787	69.73328	366.6872	0	4						-0.0138048	-0.02019844	0.01368438	
370.809	69.75514	366.709	0	4						-0.01378665	-0.02020317	0.01367478	
370.832	69.77752	366.7314	0	4						-0.01381742	-0.0202055	0.01369541	
370.854	69.79986	366.7538	0	4						-0.01379977	-0.02019691	0.01365812	
370.876	69.8222	366.7761	0	4						-0.01381836	-0.02018989	0.01367131	
370.897	69.8434	366.7973	0	4						-0.01390369	-0.02023363	0.01377936	
370.922	69.86779	366.8217	0	4						-0.01390062	-0.02021889	0.01376833	
370.943	69.88858	366.8425	0	4						-0.01391631	-0.02022802	0.0137851	
370.964	69.9101	366.864	0	4						-0.01394967	-0.02022807	0.01380382	
370.989	69.93424	366.8882	0	4						-0.01397654	-0.0202161	0.01382136	
371.009	69.95442	366.9083	0	4						-0.0139726	-0.02019915	0.01382481	
371.033	69.97922	366.9331	0	4						-0.01398222	-0.02016963	0.01381948	
371.054	69.99987	366.9538	0	4						-0.01398253	-0.0201406	0.01381556	
371.075	70.02147	366.9754	0	4						-0.01399426	-0.02012248	0.01381806	
371.100	70.04561	366.9995	0	4						-0.0140492	-0.02013261	0.01386883	
371.120	70.06634	367.0202	0	4						-0.01409298	-0.02012364	0.01387849	
371.144	70.09074	367.0446	0	4						-0.0140543	-0.02011177	0.0138434	
371.165	70.11102	367.0649	0	4						-0.01403172	-0.02010884	0.01380028	
371.188	70.13354	367.0875	0	4						-0.0140483	-0.02010794	0.01383554	
371.211	70.15689	367.1108	0	4						-0.01404721	-0.02009258	0.01383981	
371.232	70.17811	367.132	0	4						-0.0140405	-0.02006237	0.01382955	
371.255	70.20033	367.1542	0	4						-0.01403429	-0.02004476	0.01385097	
371.278	70.2243	367.1782	0	4						-0.01407815	-0.0200442	0.01392211	
371.301	70.24669	367.2006	0	4						-0.01408717	-0.02003892	0.01395871	
371.321	70.26684	367.2207	0	4						-0.01410351	-0.02007196	0.01398781	
371.343	70.28894	367.2428	0	4						-0.0141127	-0.02008699	0.014011	
371.367	70.31296	367.2668	0	4						-0.01408292	-0.02008887	0.01397505	
371.389	70.33527	367.2892	0	4						-0.01402487	-0.02009968	0.0139312	
371.410	70.35579	367.3097	0	4						-0.01396684	-0.02009719	0.01388179	
371.434	70.38005	367.334	0	4						-0.01394989	-0.02010382	0.01387151	
371.456	70.40179	367.3557	0	4						-0.01393782	-0.0201075	0.01384316	
371.476	70.42242	367.3763	0	4						-0.01396005	-0.02013402	0.01385189	
371.501	70.44731	367.4012	0	4						-0.01398406	-0.02014579	0.01387784	
371.522	70.46751	367.4214	0	4						-0.01399435	-0.02014413	0.01390072	
371.545	70.49012	367.444	0	4						-0.01399253	-0.02014836	0.01390663	
371.567	70.5126	367.4665	0	4						-0.0139794	-0.02015425	0.0138759	
371.588	70.5337	367.4876	0	4						-0.01402079	-0.02017038	0.01389364	
371.611	70.55727	367.5112	0	4						-0.01405213	-0.02018193	0.01390492	
371.633	70.5788	367.5327	0	4						-0.01405356	-0.02021293	0.01388913	
371.656	70.60216	367.5561	0	4						-0.01406152	-0.02024411	0.01388862	
371.678	70.62408	367.578	0	4						-0.01412556	-0.02027337	0.01392486	
371.699	70.64509	367.599	0	4						-0.01411343	-0.02028651	0.01387162	
371.723	70.66844	367.6223	0	4						-0.01410646	-0.02028161	0.01385656	
371.744	70.6898	367.6437	0	4						-0.01414164	-0.02029927	0.01391672	
371.766	70.71226	367.6661	0	4						-0.01414451	-0.02031888	0.01392333	
371.789	70.73553	367.6894	0	4						-0.01413018	-0.02032264	0.0138825	
371.810	70.75626	367.7101	0	4						-0.01414169	-0.02031344	0.01387576	
371.833	70.77914	367.733	0	4						-0.01413783	-0.02031182	0.01388729	
371.856	70.80192	367.7558	0	4						-0.01415467	-0.02031517	0.01392565	
371.879	70.82439	367.7783	0	4						-0.01411428	-0.0202902	0.0138618	
371.903	70.84797	367.8018	0	4						-0.01412685	-0.0202738	0.01384191	
371.922	70.86781	367.8217	0	4						-0.01417043	-0.02027684	0.01386005	
371.945	70.89085	367.8447	0	4						-0.01411146	-0.02027239	0.01381451	
371.967	70.91344	367.8673	0	4						-0.0140592	-0.02027608	0.01376221	
371.989	70.9356	367.8895	0	4						-0.01404155	-0.02027046	0.0137244	
372.011	70.95691	367.9108	0	4						-0.0140253	-0.02024327	0.01369708	
372.034	70.98056	367.9344	0	4						-0.0140333	-0.02023326	0.01371732	
372.055	71.0013	367.9552	0	4						-0.01399092	-0.02021389	0.01369223	
372.079	71.02465	367.9785	0	4						-0.01397357	-0.0201822	0.01372483	
372.102	71.04845	368.0023	0	4						-0.01398937	-0.02018277	0.01382175	
372.123	71.06863	368.0225	0	4						-0.01402085	-0.02016905	0.01388507	
372.146	71.09225	368.0461	0	4						-0.01405151	-0.02015397	0.01390114	
372.168	71.11369	368.0676	0	4						-0.01412988	-0.02014612	0.0139587	
372.191	71.1368	368.0907	0	4						-0.01416393	-0.02014261	0.01401434	
372.211	71.15753	368.1114	0	4						-0.01411686	-0.02012418	0.01397674	
372.234	71.18027	368.1342	0	4						-0.01403614	-0.02010612	0.01386549	
372.258	71.20374	368.1576	0	4						-0.01405325	-0.02008454	0.01380778	
372.278	71.22362	368.1775	0	4						-0.01407142	-0.0200713	0.01378232	
372.301	71.24683	368.2007	0	4						-0.01407024	-0.0200448	0.01376262	
372.323	71.26949	368.2234	0	4						-0.01399441	-0.02004827	0.01371031	
372.346	71.29146	368.2454	0	4						-0.01402065	-0.02005231	0.01372785	
372.369	71.31515	368.269	0	4						-0.0141061	-0.02007629	0.0138017	
372.390	71.33636	368.2903	0	4						-0.01416908	-0.02010285	0.01385157	
372.413	71.3587	368.3126	0	4						-0.01418374	-0.02013082	0.01388633	
