Time	keytime	time-time	keypress	target id	target_lon	target_lat	target_x	target_y	target_z	hmd_rx	hmd_ry	hmd_rz	
90.751	0.02633005	86.90086	0	19						0.3996747	-0.1554836	0.2524525	
90.762	0.03898348	86.91351	0	19						0.3998357	-0.155607	0.2530216	
90.767	0.04458465	86.91912	0	19						0.4002465	-0.1560977	0.2535775	
90.776	0.05291769	86.92745	0	19						0.4004659	-0.1563339	0.2538341	
90.789	0.06542138	86.93996	0	19						0.4006403	-0.1565254	0.2540779	
90.799	0.0757712	86.9503	0	19						0.4007159	-0.1566752	0.2543347	
90.810	0.08653781	86.96107	0	19						0.4008555	-0.1568194	0.2545572	
90.823	0.09939706	86.97393	0	19						0.4008397	-0.1568298	0.2548179	
90.833	0.1096809	86.98421	0	19						0.4007994	-0.156758	0.2549739	
90.844	0.120393	86.99493	0	19						0.4008297	-0.1568107	0.2551611	
90.856	0.1326391	87.00717	0	19						0.4008333	-0.1568587	0.2553806	
90.867	0.143779	87.01831	0	19						0.400786	-0.1568583	0.2555611	
90.877	0.154053	87.02859	0	19						0.4007671	-0.1569016	0.2557288	
90.889	0.1658397	87.04037	0	19						0.4007255	-0.1569231	0.2558826	
90.903	0.179333	87.05386	0	19						0.4006571	-0.1569564	0.2560533	
90.914	0.1908909	87.06542	0	19						0.4005851	-0.1569318	0.2562014	
90.922	0.1989031	87.07343	0	19						0.4004852	-0.1569144	0.256296	
90.934	0.2114918	87.08602	0	19						0.400399	-0.1569006	0.256368	
90.945	0.2220569	87.09659	0	19						0.40026	-0.1568659	0.2564654	
90.956	0.2328978	87.10743	0	19						0.4001193	-0.156875	0.2565747	
90.968	0.2451111	87.11964	0	19						0.4000144	-0.1568049	0.2566798	
90.977	0.2542197	87.12875	0	19						0.3999024	-0.1567496	0.2566995	
90.988	0.2648338	87.13937	0	19						0.3998166	-0.1567286	0.2568328	
91.001	0.2774197	87.15195	0	19						0.3997412	-0.1567333	0.2568344	
91.010	0.2870635	87.1616	0	19						0.3996717	-0.1567179	0.2568808	
91.022	0.2990362	87.17357	0	19						0.3995967	-0.1567123	0.2569701	
91.034	0.3112124	87.18575	0	19						0.3995522	-0.1567769	0.256979	
91.057	0.3211478	87.19568	0	19						0.3995409	-0.1567428	0.2571043	
91.069	0.3460316	87.22057	0	19						0.3995411	-0.1567586	0.2571574	
91.078	0.3548047	87.22934	0	19						0.3995971	-0.1567542	0.2573361	
91.087	0.3647421	87.23927	0	19						0.3996589	-0.1567946	0.2573228	
91.100	0.3770826	87.25162	0	19						0.3997513	-0.1568584	0.2573873	
91.111	0.388008	87.26254	0	19						0.3999056	-0.1569734	0.2574482	
91.124	0.4002399	87.27477	0	19						0.4000359	-0.1569831	0.2575169	
91.134	0.4104108	87.28494	0	19						0.4001681	-0.1570385	0.2576184	
91.145	0.421668	87.2962	0	19						0.4003181	-0.15709	0.2577252	
91.155	0.4318622	87.3064	0	19						0.4004721	-0.1571532	0.2578498	
91.167	0.4435817	87.31812	0	19						0.4006581	-0.1572165	0.2579104	
91.179	0.4559917	87.33052	0	19						0.400779	-0.1573122	0.2579879	
91.191	0.4681063	87.34264	0	19						0.4009126	-0.1573938	0.2581564	
91.200	0.4772796	87.35181	0	19						0.4010291	-0.1574208	0.258316	
91.211	0.4877326	87.36227	0	19						0.401085	-0.1574449	0.2584254	
91.223	0.4996626	87.37419	0	19						0.4011782	-0.1574735	0.2585371	
91.234	0.5104865	87.38502	0	19						0.4013015	-0.1575106	0.2586748	
91.244	0.5202809	87.39481	0	19						0.401439	-0.1575747	0.2588237	
91.257	0.5335628	87.4081	0	19						0.4014654	-0.1575566	0.258964	
91.267	0.5438392	87.41837	0	19						0.4015586	-0.1575893	0.2591133	
91.277	0.5536932	87.42822	0	19						0.4016994	-0.1576458	0.2592215	
91.290	0.5671833	87.44172	0	19						0.401759	-0.1576636	0.2593235	
91.300	0.5770507	87.45158	0	19						0.4018729	-0.1576727	0.2595185	
91.311	0.5876898	87.46222	0	19						0.4019918	-0.1577232	0.2596517	
91.322	0.5993555	87.47388	0	19						0.4019747	-0.1576729	0.259784	
91.333	0.6100755	87.48461	0	19						0.4020564	-0.1577116	0.2599825	
91.344	0.6208335	87.49537	0	19						0.4020455	-0.1576823	0.2601874	
91.365	0.641667	87.5162	0	19						0.4020405	-0.1576618	0.2603712	
91.375	0.6525727	87.52711	0	19						0.4019987	-0.1576184	0.2607125	
91.385	0.66203	87.53656	0	19						0.4019507	-0.1575619	0.2609274	
91.395	0.6720619	87.54659	0	19						0.4019171	-0.1575613	0.261157	
91.402	0.6784654	87.553	0	19						0.4018896	-0.1575822	0.2613528	
91.412	0.6886821	87.56322	0	19						0.4019171	-0.1575903	0.2614483	
91.423	0.6993468	87.57388	0	19						0.4018638	-0.1576115	0.2616342	
91.435	0.7116743	87.5862	0	19						0.4018502	-0.1576216	0.2617664	
91.445	0.7216828	87.59621	0	19						0.4018476	-0.1576375	0.2619423	
91.457	0.7336761	87.60821	0	19						0.4018563	-0.1576879	0.2621144	
91.468	0.7443846	87.61892	0	19						0.4019218	-0.1577505	0.262283	
91.478	0.7547439	87.62927	0	19						0.4020019	-0.1578389	0.2624709	
91.489	0.765505	87.64004	0	19						0.4020927	-0.1579409	0.2626562	
91.500	0.7772881	87.65182	0	19						0.4022471	-0.1580452	0.2628105	
91.512	0.7882356	87.66277	0	19						0.4024901	-0.1582317	0.2630217	
91.522	0.7994573	87.67399	0	19						0.4027006	-0.1584242	0.2632253	
91.533	0.8102326	87.68477	0	19						0.4029002	-0.1586112	0.2633947	
91.546	0.8226404	87.69717	0	19						0.4031203	-0.1588259	0.2635784	
91.555	0.8324292	87.70696	0	19						0.4033506	-0.1590301	0.2637499	
91.568	0.8443134	87.71885	0	19						0.403622	-0.1592269	0.2639163	
91.579	0.8552491	87.72978	0	19						0.4038981	-0.1594203	0.2641284	
91.589	0.8656455	87.74018	0	19						0.4042007	-0.1596595	0.2643445	
91.600	0.8768775	87.75141	0	19						0.4044689	-0.1598715	0.2645298	
91.611	0.8884035	87.76294	0	19						0.4047147	-0.1601608	0.2647665	
91.622	0.8988465	87.77338	0	19						0.4049828	-0.1604287	0.2649874	
91.633	0.9103989	87.78493	0	19						0.4052546	-0.1607124	0.2651851	
91.644	0.9208692	87.7954	0	19						0.4055264	-0.1609602	0.265388	
91.666	0.9430073	87.81754	0	19						0.4058008	-0.1612664	0.2656344	
91.678	0.9547291	87.82926	0	19						0.4060694	-0.1614979	0.2659568	
91.690	0.9668489	87.84138	0	19						0.4066184	-0.1620729	0.2663928	
91.700	0.9771217	87.85165	0	19						0.4068743	-0.1623462	0.2666637	
91.711	0.987816	87.86235	0	19						0.4071051	-0.1626015	0.2669171	
91.723	0.9998831	87.87441	0	19						0.4072462	-0.1627096	0.2671005	
91.735	1.010974	87.88551	0	19						0.407541	-0.1629711	0.2673657	
91.745	1.022058	87.89659	0	19						0.4078144	-0.1632521	0.2676457	
91.755	1.032423	87.90695	0	19						0.4079703	-0.1634139	0.2678287	
91.766	1.043436	87.91797	0	19						0.4079744	-0.1633666	0.2678942	
91.777	1.054248	87.92878	0	19						0.4081394	-0.1635156	0.268143	
91.790	1.066493	87.94102	0	19						0.4083546	-0.1637	0.2684092	
91.802	1.078537	87.95307	0	19						0.4086025	-0.1638903	0.2687823	
91.811	1.087989	87.96252	0	19						0.4087973	-0.1640229	0.2691392	
91.822	1.098445	87.97298	0	19						0.408809	-0.1640079	0.2692897	
91.835	1.111503	87.98604	0	19						0.4089182	-0.1640708	0.2695666	
91.844	1.121308	87.99584	0	19						0.4090275	-0.164106	0.2699147	
91.857	1.133311	88.00784	0	19						0.4091515	-0.1641473	0.2702602	
91.867	1.143907	88.01844	0	19						0.4092087	-0.1641138	0.2705367	
91.877	1.153858	88.02839	0	19						0.4092707	-0.1641255	0.2708042	
91.889	1.165749	88.04028	0	19						0.4093328	-0.1641375	0.2710533	
91.900	1.176872	88.05141	0	19						0.4094142	-0.1641758	0.2713813	
91.911	1.187629	88.06216	0	19						0.4094287	-0.1641491	0.2715412	
91.922	1.199021	88.07355	0	19						0.4094878	-0.1641603	0.2718238	
91.933	1.210003	88.08453	0	19						0.4095325	-0.1641642	0.2720602	
91.945	1.22161	88.09615	0	19						0.409645	-0.164175	0.272261	
91.957	1.234102	88.10863	0	19						0.4097359	-0.1641926	0.2725135	
91.981	1.257493	88.13203	0	19						0.4098285	-0.1641856	0.2727391	
91.991	1.267427	88.14196	0	19						0.4099056	-0.1642264	0.2729562	
92.001	1.277455	88.15199	0	19						0.4100989	-0.1643744	0.2731983	
92.012	1.2888	88.16333	0	19						0.4101592	-0.164456	0.2733751	
92.022	1.298542	88.17307	0	19						0.4102442	-0.1644864	0.2734683	
92.033	1.30959	88.18412	0	19						0.4102507	-0.1645198	0.2735913	
92.044	1.321237	88.19577	0	19						0.4102391	-0.1645802	0.2736776	
92.055	1.332342	88.20687	0	19						0.4102386	-0.1646883	0.2738066	
92.068	1.343909	88.21844	0	19						0.4101827	-0.1647293	0.2739108	
92.078	1.354644	88.22918	0	19						0.4101162	-0.1647738	0.2740159	
92.090	1.365828	88.24036	0	19						0.4100477	-0.1648147	0.2741001	
92.100	1.377176	88.25171	0	19						0.4099604	-0.1648605	0.2741948	
92.111	1.387845	88.26237	0	19						0.4098304	-0.1649642	0.274246	
92.124	1.400696	88.27523	0	19						0.4096675	-0.1650429	0.2743084	
92.133	1.410217	88.28475	0	19						0.4094494	-0.1650821	0.2743394	
92.144	1.420987	88.29552	0	19						0.4091581	-0.1650974	0.274355	
92.157	1.433875	88.30841	0	19						0.4088547	-0.1650437	0.2743426	
92.167	1.444007	88.31854	0	19						0.4085161	-0.1649859	0.2742922	
92.177	1.454501	88.32903	0	19						0.408109	-0.1649008	0.2742099	
92.190	1.466476	88.34101	0	19						0.4077069	-0.1647716	0.274071	
92.201	1.477272	88.35181	0	19						0.4071738	-0.1645492	0.2739153	
92.211	1.488075	88.36261	0	19						0.4065359	-0.1642841	0.2737958	
92.222	1.499153	88.37369	0	19						0.4058303	-0.1639328	0.2735869	
92.235	1.511488	88.38602	0	19						0.4050415	-0.1635284	0.2733416	
92.245	1.521832	88.39636	0	19						0.4042347	-0.1630597	0.2730516	
92.255	1.532065	88.4066	0	19						0.4032272	-0.162391	0.2727034	
92.269	1.545684	88.42022	0	19						0.4021569	-0.1616406	0.272341	
92.293	1.569796	88.44433	0	19						0.4009148	-0.160665	0.2718859	
92.303	1.579951	88.45448	0	19						0.3994367	-0.1594748	0.2713347	
92.311	1.588111	88.46265	0	19						0.3967698	-0.1574333	0.2701369	
92.321	1.597598	88.47213	0	19						0.3952784	-0.1562216	0.26944	
92.333	1.61034	88.48487	0	19						0.3936303	-0.1547988	0.2686287	
92.343	1.620175	88.49471	0	19						0.3918125	-0.153297	0.267789	
92.354	1.631403	88.50594	0	19						0.3899636	-0.1517949	0.2668708	
92.367	1.643809	88.51834	0	19						0.3878932	-0.1500714	0.2657925	
92.378	1.654128	88.52866	0	19						0.3856833	-0.1483147	0.2646269	
92.388	1.665199	88.53973	0	19						0.3834301	-0.1465433	0.2634439	
92.400	1.676301	88.55083	0	19						0.3809908	-0.1445679	0.2620975	
92.411	1.687587	88.56212	0	19						0.3784738	-0.1425838	0.2607423	
92.422	1.698985	88.57352	0	19						0.3757976	-0.1405302	0.259266	
92.433	1.71004	88.58457	0	19						0.3730055	-0.1384743	0.2577157	
92.445	1.721319	88.59586	0	19						0.3701026	-0.1364208	0.2561046	
92.456	1.732514	88.60705	0	19						0.3670261	-0.1343059	0.2542765	
92.466	1.742979	88.61751	0	19						0.3638991	-0.1322866	0.2524132	
92.478	1.75505	88.62959	0	19						0.3606108	-0.1303183	0.2503736	
92.489	1.765594	88.64013	0	19						0.3572035	-0.1282976	0.2482139	
92.500	1.777269	88.6518	0	19						0.3537486	-0.1262723	0.246075	
92.513	1.789539	88.66407	0	19						0.350139	-0.1243014	0.2437935	
92.523	1.799302	88.67384	0	19						0.3464534	-0.1224272	0.2414633	
92.533	1.809732	88.68427	0	19						0.3427595	-0.1205347	0.2390139	
92.544	1.821099	88.69563	0	19						0.3389574	-0.1186838	0.2365265	
92.557	1.833171	88.7077	0	19						0.3351022	-0.1169129	0.2338617	
92.567	1.844206	88.71874	0	19						0.3312099	-0.1152313	0.2311303	
92.578	1.854657	88.72919	0	19						0.3272267	-0.1134775	0.2283667	
92.601	1.877146	88.75168	0	19						0.3231455	-0.1116977	0.2255835	
92.611	1.887971	88.7625	0	19						0.3188874	-0.1103014	0.2225833	
92.623	1.90009	88.77462	0	19						0.3108613	-0.1069534	0.2168445	
92.634	1.910667	88.7852	0	19						0.3067887	-0.1051005	0.213786	
92.644	1.921489	88.79602	0	19						0.3026465	-0.1030758	0.2107864	
92.657	1.93409	88.80862	0	19						0.2984707	-0.1008863	0.2078021	
92.668	1.943947	88.81848	0	19						0.2942388	-0.09879927	0.2048725	
92.678	1.955543	88.83008	0	19						0.2900198	-0.09671971	0.2019278	
92.689	1.965854	88.84039	0	19						0.2856845	-0.09478584	0.1989405	
92.703	1.978985	88.85352	0	19						0.2813535	-0.09263235	0.1959316	
92.712	1.988581	88.86311	0	19						0.2769964	-0.09038647	0.1929695	
92.722	1.998819	88.87335	0	19						0.2726601	-0.08799551	0.1899379	
92.735	2.011411	88.88594	0	19						0.26826	-0.08557644	0.1869192	
92.745	2.021511	88.89604	0	19						0.2636996	-0.08311442	0.183888	
92.756	2.033005	88.90754	0	19						0.2592009	-0.08067539	0.1809406	
92.769	2.04531	88.91985	0	19						0.2546158	-0.07819514	0.1780256	
92.778	2.055028	88.92956	0	19						0.2499323	-0.07571284	0.1751076	
92.789	2.065856	88.94039	0	19						0.245299	-0.07325307	0.1721904	
92.801	2.077524	88.95206	0	19						0.2406041	-0.07085188	0.1693406	
92.811	2.087963	88.96249	0	19						0.2359024	-0.06855494	0.166504	
92.823	2.100127	88.97466	0	19						0.2311061	-0.06628298	0.1636138	
92.833	2.110409	88.98494	0	19						0.2261461	-0.06414643	0.1606427	
92.845	2.121403	88.99593	0	19						0.2212973	-0.06215856	0.1576226	
92.855	2.132445	89.00697	0	19						0.2163159	-0.06027173	0.1544876	
92.866	2.14362	89.01815	0	19						0.211446	-0.05845036	0.1513479	
92.879	2.155272	89.0298	0	19						0.206576	-0.0569463	0.148188	
92.890	2.166617	89.04115	0	19						0.2016736	-0.05545467	0.1449319	
92.913	2.190022	89.06455	0	19						0.1968384	-0.05402038	0.1417393	
92.922	2.199103	89.07364	0	19						0.1919927	-0.05298853	0.1386161	
92.933	2.210365	89.0849	0	19						0.1827868	-0.05021907	0.1323671	
92.945	2.222076	89.09661	0	19						0.1782834	-0.04910574	0.1293043	
92.956	2.232609	89.10714	0	19						0.1738009	-0.04825545	0.1263179	
92.967	2.243757	89.11829	0	19						0.1693708	-0.04745485	0.1233771	
92.978	2.254703	89.12923	0	19						0.1650577	-0.04681545	0.1204505	
92.990	2.267131	89.14166	0	19						0.1608814	-0.04634389	0.1176061	
93.000	2.276994	89.15153	0	19						0.1568579	-0.04622837	0.1148672	
93.011	2.287947	89.16248	0	19						0.1528869	-0.04614595	0.112145	
93.025	2.301558	89.17609	0	19						0.1489522	-0.04617376	0.1094486	
93.035	2.311728	89.18626	0	19						0.1450798	-0.04648887	0.1068844	
93.044	2.32126	89.19579	0	19						0.1412662	-0.04681708	0.1044048	
93.056	2.3332	89.20773	0	19						0.1375297	-0.04707715	0.101966	
93.067	2.343638	89.21817	0	19						0.1338283	-0.04764683	0.09962846	
93.078	2.354849	89.22939	0	19						0.1302076	-0.04812384	0.09732994	
93.089	2.366187	89.24072	0	19						0.1266682	-0.04860803	0.09515925	
93.101	2.377333	89.25186	0	19						0.1232798	-0.04887262	0.0931466	
93.111	2.387858	89.26239	0	19						0.1200163	-0.04881813	0.09131116	
93.122	2.399195	89.27373	0	19						0.1167864	-0.04856865	0.08960029	
93.134	2.410663	89.28519	0	19						0.1136691	-0.04816681	0.08803988	
93.145	2.42133	89.29586	0	19						0.1106182	-0.04766689	0.0866086	
93.156	2.433227	89.30776	0	19						0.1075903	-0.046982	0.08529391	
93.169	2.446151	89.32069	0	19						0.1045295	-0.04632884	0.08398551	
93.178	2.455389	89.32992	0	19						0.1012703	-0.0457917	0.08262283	
93.189	2.466217	89.34075	0	19						0.0980473	-0.04523941	0.08120295	
93.203	2.479801	89.35433	0	19						0.09474397	-0.04464026	0.0798099	
93.212	2.488956	89.36349	0	19						0.09119681	-0.04402775	0.07848983	
93.238	2.514327	89.38886	0	19						0.08775518	-0.04343863	0.07725638	
93.249	2.52573	89.40026	0	19						0.08397929	-0.0429073	0.0761754	
93.255	2.531652	89.40618	0	19						0.07739388	-0.04172044	0.07415496	
93.267	2.543949	89.41848	0	19						0.07410284	-0.04118201	0.07328674	
93.277	2.553426	89.42796	0	19						0.07063515	-0.04074037	0.07267154	
93.289	2.565888	89.44042	0	19						0.06733415	-0.04029511	0.0721372	
93.300	2.576306	89.45084	0	19						0.06400458	-0.03992054	0.07174769	
93.312	2.588988	89.46352	0	19						0.06076637	-0.03959262	0.07134844	
93.322	2.598901	89.47343	0	19						0.05756222	-0.03932745	0.07109422	
93.333	2.610281	89.48481	0	19						0.05448872	-0.0390728	0.07083616	
93.345	2.622418	89.49695	0	19						0.05147096	-0.03886486	0.07064117	
93.356	2.632829	89.50736	0	19						0.04851471	-0.03882114	0.07053099	
93.367	2.643626	89.51816	0	19						0.04563893	-0.03875481	0.07049344	
93.378	2.655129	89.52966	0	19						0.04284494	-0.03868641	0.07049774	
93.389	2.666417	89.54095	0	19						0.0401184	-0.03867297	0.07053675	
93.400	2.677143	89.55167	0	19						0.03752834	-0.03868641	0.0706015	
93.411	2.68781	89.56234	0	19						0.03493071	-0.03875332	0.0706439	
93.423	2.699508	89.57404	0	19						0.03244704	-0.03892501	0.07071376	
93.434	2.710618	89.58515	0	19						0.02998991	-0.03912035	0.07072926	
93.445	2.721636	89.59617	0	19						0.02766852	-0.03926031	0.07077461	
93.457	2.733921	89.60845	0	19						0.02541075	-0.03949319	0.07079522	
93.467	2.743916	89.61845	0	19						0.02315005	-0.0396739	0.07076997	
93.478	2.754765	89.6293	0	19						0.0210817	-0.0398318	0.07085662	
93.490	2.767087	89.64162	0	19						0.01902374	-0.04003252	0.07092801	
93.501	2.777691	89.65222	0	19						0.016898	-0.04023031	0.07090809	
93.511	2.788088	89.66262	0	19						0.0148626	-0.0404152	0.07094545	
93.526	2.802826	89.67736	0	19						0.01297412	-0.04056562	0.07098536	
93.549	2.825207	89.69974	0	19						0.01102931	-0.04071687	0.07087595	
93.558	2.83471	89.70924	0	19						0.008785127	-0.04097346	0.07057735	
93.566	2.84306	89.71759	0	19						0.005317627	-0.04109538	0.07065698	
93.578	2.854788	89.72932	0	19						0.003562886	-0.04112967	0.07055778	
93.588	2.865241	89.73978	0	19						0.001771112	-0.04119446	0.07040243	
93.602	2.876887	89.75142	0	19						-3.298745E-05	-0.04118241	0.07012905	
93.612	2.888563	89.76309	0	19						-0.001804501	-0.04110005	0.06987238	
93.622	2.89865	89.77319	0	19						-0.003554172	-0.04096282	0.06965786	
93.634	2.910384	89.78492	0	19						-0.005220379	-0.04085715	0.06941431	
93.644	2.920739	89.79527	0	19						-0.006911115	-0.04068925	0.06905919	
93.656	2.932714	89.80724	0	19						-0.008528733	-0.04042135	0.06872298	
93.668	2.94481	89.81934	0	19						-0.01022667	-0.0402867	0.06832674	
93.678	2.954682	89.82922	0	19						-0.0118165	-0.04003231	0.06780174	
93.689	2.965577	89.84011	0	19						-0.01331483	-0.03969069	0.06741674	
93.699	2.976489	89.85102	0	19						-0.01482293	-0.03937392	0.06685896	
93.712	2.988422	89.86295	0	19						-0.01622674	-0.03897348	0.06635538	
93.722	2.999247	89.87378	0	19						-0.01762778	-0.03864862	0.06575477	
93.734	3.010795	89.88533	0	19						-0.01890144	-0.03819147	0.06513061	
93.746	3.023046	89.89758	0	19						-0.02016923	-0.03773953	0.06457222	
93.756	3.032315	89.90685	0	19						-0.02148015	-0.03722578	0.06382608	
93.766	3.043283	89.91782	0	19						-0.02259216	-0.03670069	0.0632411	
93.779	3.055802	89.93034	0	19						-0.02380163	-0.03618328	0.06246825	
93.789	3.066142	89.94067	0	19						-0.02494042	-0.03566569	0.06162273	
93.801	3.077638	89.95217	0	19						-0.02599445	-0.03515697	0.06077297	
93.812	3.089131	89.96366	0	19						-0.02700992	-0.03459549	0.05985045	
93.823	3.099488	89.97402	0	19						-0.02789958	-0.03403911	0.05889862	
93.834	3.110615	89.98515	0	19						-0.02876289	-0.03348598	0.05788928	
93.859	3.135698	90.01023	0	19						-0.02959831	-0.0329028	0.05691136	
93.867	3.144293	90.01882	0	19						-0.03067262	-0.03239893	0.05545338	
93.878	3.154829	90.02936	0	19						-0.03139155	-0.03178991	0.05443688	
93.891	3.167659	90.04219	0	19						-0.03264477	-0.03049989	0.052389	
93.901	3.177726	90.05226	0	19						-0.03323809	-0.02993771	0.05116216	
93.912	3.188826	90.06336	0	19						-0.03378214	-0.02928326	0.04996401	
93.924	3.200212	90.07475	0	19						-0.03432754	-0.02872174	0.04877485	
93.935	3.210783	90.08532	0	19						-0.03477322	-0.02817358	0.04753901	
93.946	3.222348	90.09688	0	19						-0.03522533	-0.02775355	0.0461741	
93.956	3.232972	90.10751	0	19						-0.03563209	-0.02729516	0.04485812	
93.967	3.244398	90.11893	0	19						-0.03599227	-0.02683583	0.04349233	
93.978	3.254899	90.12943	0	19						-0.03628393	-0.02636458	0.04217682	
93.990	3.267034	90.14156	0	19						-0.03658638	-0.02589508	0.04078047	
94.002	3.277584	90.15211	0	19						-0.03680154	-0.02542258	0.0394392	
94.012	3.288543	90.16308	0	19						-0.03697855	-0.02493809	0.03813583	
94.023	3.299665	90.17419	0	19						-0.03712714	-0.02454741	0.03686516	
94.037	3.313926	90.18846	0	19						-0.0373055	-0.0241775	0.03560908	
94.046	3.323276	90.19781	0	19						-0.03745968	-0.02379817	0.03429413	
94.055	3.332426	90.20696	0	19						-0.0375623	-0.02338375	0.03307712	
94.069	3.345454	90.21999	0	19						-0.03754435	-0.0230129	0.03188654	
94.078	3.355144	90.22968	0	19						-0.03754677	-0.02270349	0.03066963	
