Time	keytime	time-time	keypress	target id	target_lon	target_lat	target_y	target_z	target_x	hmd_rx	hmd_ry	hmd_rz	
74.422	0.02495921	70.40237		3	90	0	0	-3.059797E-08	0.7	-0.0004282445	-0.1425316	0.2674027	
74.439	0.04301353	70.42043		3	90	0	0	-3.059797E-08	0.7	-0.0008548889	-0.1430364	0.267756	
74.476	0.07915655	70.45657		3	90	0	0	-3.059797E-08	0.7	-0.001225624	-0.1434931	0.2681761	
74.491	0.09460781	70.47202		3	90	0	0	-3.059797E-08	0.7	-0.001465261	-0.1439691	0.2683559	
74.509	0.1130742	70.49049		3	90	0	0	-3.059797E-08	0.7	-0.001658902	-0.1443442	0.2686862	
74.528	0.131599	70.50901		3	90	0	0	-3.059797E-08	0.7	-0.001765719	-0.1446128	0.268914	
74.552	0.1563508	70.53376		3	90	0	0	-3.059797E-08	0.7	-0.001875086	-0.1447977	0.2690521	
74.572	0.1755212	70.55293		3	90	0	0	-3.059797E-08	0.7	-0.002029449	-0.1450729	0.2692423	
74.588	0.1920241	70.56944		3	90	0	0	-3.059797E-08	0.7	-0.002167851	-0.1452888	0.2694584	
74.605	0.209107	70.58652		3	90	0	0	-3.059797E-08	0.7	-0.002289627	-0.1454509	0.2697008	
74.623	0.227228	70.60464		3	90	0	0	-3.059797E-08	0.7	-0.002366193	-0.1455463	0.2697572	
74.642	0.2457809	70.62319		3	90	0	0	-3.059797E-08	0.7	-0.002478383	-0.1457381	0.2699799	
74.660	0.2639775	70.64139		3	90	0	0	-3.059797E-08	0.7	-0.00254293	-0.1459244	0.270182	
74.679	0.2830396	70.66045		3	90	0	0	-3.059797E-08	0.7	-0.002587639	-0.146199	0.2703525	
74.705	0.3087269	70.68613		3	90	0	0	-3.059797E-08	0.7	-0.002645567	-0.1463952	0.2704298	
74.726	0.3303865	70.70779		3	90	0	0	-3.059797E-08	0.7	-0.002681693	-0.1466172	0.2704769	
74.744	0.3480904	70.7255		3	90	0	0	-3.059797E-08	0.7	-0.002719354	-0.1468289	0.270723	
74.769	0.3731089	70.75052		3	90	0	0	-3.059797E-08	0.7	-0.002724102	-0.1470072	0.2708004	
74.791	0.3953904	70.7728		3	90	0	0	-3.059797E-08	0.7	-0.002687521	-0.147269	0.2709651	
74.810	0.4143889	70.7918		3	90	0	0	-3.059797E-08	0.7	-0.002687944	-0.1474669	0.2711216	
74.835	0.4391225	70.81654		3	90	0	0	-3.059797E-08	0.7	-0.002709493	-0.1477287	0.2714675	
74.859	0.4631699	70.84058		3	90	0	0	-3.059797E-08	0.7	-0.002767183	-0.1480199	0.2716305	
74.876	0.4799213	70.85733		3	90	0	0	-3.059797E-08	0.7	-0.002807464	-0.1484384	0.2720546	
74.901	0.5052969	70.88271		3	90	0	0	-3.059797E-08	0.7	-0.002792656	-0.1486876	0.2722341	
74.923	0.5267587	70.90417		3	90	0	0	-3.059797E-08	0.7	-0.002761573	-0.149128	0.2726591	
74.945	0.54896	70.92637		3	90	0	0	-3.059797E-08	0.7	-0.002747435	-0.1494201	0.2729175	
74.968	0.5725768	70.94999		3	90	0	0	-3.059797E-08	0.7	-0.002769638	-0.1497381	0.2731581	
74.989	0.5935411	70.97095		3	90	0	0	-3.059797E-08	0.7	-0.002822425	-0.1499764	0.2733545	
75.016	0.6190882	70.9965		3	90	0	0	-3.059797E-08	0.7	-0.002858408	-0.1502241	0.2734899	
75.035	0.6387271	71.01614		3	90	0	0	-3.059797E-08	0.7	-0.002937783	-0.1503423	0.2734168	
75.059	0.6623853	71.03979		3	90	0	0	-3.059797E-08	0.7	-0.002994591	-0.1503612	0.273173	
75.078	0.6820531	71.05946		3	90	0	0	-3.059797E-08	0.7	-0.003145246	-0.1501966	0.2727286	
75.101	0.7046005	71.08201		3	90	0	0	-3.059797E-08	0.7	-0.003314419	-0.1498192	0.2718828	
75.125	0.7287446	71.10616		3	90	0	0	-3.059797E-08	0.7	-0.003578186	-0.1493022	0.2706202	
75.146	0.7499966	71.12741		3	90	0	0	-3.059797E-08	0.7	-0.003876714	-0.1485272	0.2689956	
75.170	0.7739286	71.15134		3	90	0	0	-3.059797E-08	0.7	-0.004186813	-0.1475461	0.2669866	
75.192	0.7967703	71.17418		3	90	0	0	-3.059797E-08	0.7	-0.004608265	-0.1462912	0.2642942	
75.213	0.8171939	71.1946		3	90	0	0	-3.059797E-08	0.7	-0.00512369	-0.1447278	0.2611162	
75.234	0.8383641	71.21577		3	90	0	0	-3.059797E-08	0.7	-0.005539333	-0.1429697	0.2576084	
75.258	0.8617537	71.23917		3	90	0	0	-3.059797E-08	0.7	-0.005962065	-0.140918	0.2537152	
75.279	0.8830827	71.26049		3	90	0	0	-3.059797E-08	0.7	-0.006198227	-0.1386926	0.2492504	
75.303	0.906989	71.2844		3	90	0	0	-3.059797E-08	0.7	-0.006429533	-0.1362379	0.2443686	
75.324	0.9276839	71.30509		3	90	0	0	-3.059797E-08	0.7	-0.006426261	-0.1335465	0.2391588	
75.348	0.9525235	71.32993		3	90	0	0	-3.059797E-08	0.7	-0.006277109	-0.1306828	0.2339628	
75.369	0.9729257	71.35033		3	90	0	0	-3.059797E-08	0.7	-0.00598684	-0.1277172	0.2283259	
75.390	0.9935301	71.37094		3	90	0	0	-3.059797E-08	0.7	-0.005613694	-0.1246397	0.2226201	
75.413	1.016502	71.39391		3	90	0	0	-3.059797E-08	0.7	-0.005110888	-0.1214848	0.2167354	
75.434	1.038144	71.41556		3	90	0	0	-3.059797E-08	0.7	-0.004513226	-0.1182596	0.210626	
75.460	1.063842	71.44125		3	90	0	0	-3.059797E-08	0.7	-0.003772292	-0.1150034	0.2040408	
75.481	1.084499	71.46191		3	90	0	0	-3.059797E-08	0.7	-0.002925292	-0.1116784	0.1971671	
75.503	1.107226	71.48463		3	90	0	0	-3.059797E-08	0.7	-0.002010565	-0.108326	0.1902362	
75.523	1.127656	71.50507		3	90	0	0	-3.059797E-08	0.7	-0.001051858	-0.104953	0.183183	
75.548	1.152134	71.52954		3	90	0	0	-3.059797E-08	0.7	-4.807673E-05	-0.1015338	0.176028	
75.568	1.171796	71.54921		3	90	0	0	-3.059797E-08	0.7	0.0008712057	-0.09826398	0.1686521	
75.593	1.197186	71.5746		3	90	0	0	-3.059797E-08	0.7	0.001799997	-0.09508727	0.1612457	
75.613	1.217283	71.5947		3	90	0	0	-3.059797E-08	0.7	0.002782222	-0.09188763	0.1537731	
75.637	1.24104	71.61845		3	90	0	0	-3.059797E-08	0.7	0.003734832	-0.08883952	0.146391	
75.671	1.275339	71.65275		3	90	0	0	-3.059797E-08	0.7	0.004555125	-0.08587593	0.1390287	
75.690	1.293792	71.6712		3	90	0	0	-3.059797E-08	0.7	0.00517988	-0.0831562	0.1320905	
75.707	1.311335	71.68874		3	90	0	0	-3.059797E-08	0.7	0.005753142	-0.08044644	0.1252144	
75.726	1.329469	71.70688		3	90	0	0	-3.059797E-08	0.7	0.006159349	-0.07797994	0.1185637	
75.747	1.350739	71.72815		3	90	0	0	-3.059797E-08	0.7	0.006441406	-0.07571046	0.1118792	
75.764	1.36814	71.74555		3	90	0	0	-3.059797E-08	0.7	0.006679608	-0.07368483	0.1050964	
75.789	1.392587	71.77		3	90	0	0	-3.059797E-08	0.7	0.007096449	-0.07168886	0.09840219	
75.813	1.41683	71.79424		3	90	0	0	-3.059797E-08	0.7	0.007571096	-0.06967786	0.09176047	
75.834	1.438145	71.81556		3	90	0	0	-3.059797E-08	0.7	0.008168714	-0.06780181	0.08523552	
75.857	1.460697	71.8381		3	90	0	0	-3.059797E-08	0.7	0.008899326	-0.06587875	0.07883683	
75.879	1.482834	71.86024		3	90	0	0	-3.059797E-08	0.7	0.009627448	-0.06402702	0.07261833	
75.901	1.505069	71.88248		3	90	0	0	-3.059797E-08	0.7	0.01014377	-0.06219945	0.06657033	
75.924	1.527622	71.90503		3	90	0	0	-3.059797E-08	0.7	0.01047316	-0.06040525	0.06085508	
75.947	1.551312	71.92873		3	90	0	0	-3.059797E-08	0.7	0.01066191	-0.05876169	0.05540565	
75.968	1.571399	71.94881		3	90	0	0	-3.059797E-08	0.7	0.01070682	-0.05720206	0.05020688	
75.992	1.595919	71.97333		3	90	0	0	-3.059797E-08	0.7	0.01072689	-0.05568146	0.04507124	
76.013	1.616707	71.99412		3	90	0	0	-3.059797E-08	0.7	0.01075109	-0.05418105	0.04007354	
76.037	1.640672	72.01808		3	90	0	0	-3.059797E-08	0.7	0.01067194	-0.05290011	0.03504868	
76.058	1.662601	72.04001		3	90	0	0	-3.059797E-08	0.7	0.01057912	-0.05162156	0.03013438	
76.081	1.685008	72.06242		3	90	0	0	-3.059797E-08	0.7	0.01056957	-0.0503527	0.02525971	
76.105	1.708634	72.08604		3	90	0	0	-3.059797E-08	0.7	0.01049229	-0.04919099	0.02035482	
76.127	1.730548	72.10796		3	90	0	0	-3.059797E-08	0.7	0.01040164	-0.04797324	0.01542341	
76.148	1.751882	72.1293		3	90	0	0	-3.059797E-08	0.7	0.01031596	-0.04671204	0.01070833	
76.171	1.774999	72.15241		3	90	0	0	-3.059797E-08	0.7	0.01018797	-0.04523043	0.006441637	
76.191	1.794705	72.17212		3	90	0	0	-3.059797E-08	0.7	0.009934004	-0.04358551	0.002563608	
76.213	1.816669	72.19408		3	90	0	0	-3.059797E-08	0.7	0.009528285	-0.04173849	-0.0009159941	
76.235	1.8395	72.21691		3	90	0	0	-3.059797E-08	0.7	0.008914232	-0.03968439	-0.003881799	
76.260	1.862641	72.24005		3	90	0	0	-3.059797E-08	0.7	0.008169046	-0.03728469	-0.006471846	
76.281	1.885234	72.26264		3	90	0	0	-3.059797E-08	0.7	0.007291624	-0.03464849	-0.00855255	
76.302	1.905724	72.28313		3	90	0	0	-3.059797E-08	0.7	0.006353726	-0.0321215	-0.0103759	
76.325	1.928974	72.30638		3	90	0	0	-3.059797E-08	0.7	0.005311131	-0.02959448	-0.01191439	
76.346	1.949557	72.32697		3	90	0	0	-3.059797E-08	0.7	0.004304457	-0.02728113	-0.01324362	
76.368	1.97208	72.34949		3	90	0	0	-3.059797E-08	0.7	0.003330367	-0.02507135	-0.01440127	
76.392	1.995836	72.37325		3	90	0	0	-3.059797E-08	0.7	0.002412993	-0.02310247	-0.01548145	
76.413	2.017193	72.3946		3	90	0	0	-3.059797E-08	0.7	0.001547276	-0.02157498	-0.01642014	
76.439	2.042708	72.42012		3	90	0	0	-3.059797E-08	0.7	0.0007590987	-0.02008746	-0.01738416	
76.458	2.062335	72.43974		3	90	0	0	-3.059797E-08	0.7	5.441718E-05	-0.01860504	-0.018183	
76.481	2.084544	72.46195		3	90	0	0	-3.059797E-08	0.7	-0.000534703	-0.01719439	-0.01903759	
76.507	2.110568	72.48798		3	90	0	0	-3.059797E-08	0.7	-0.001105616	-0.01591788	-0.01978566	
76.525	2.129508	72.50692		3	90	0	0	-3.059797E-08	0.7	-0.001454256	-0.01481134	-0.02033922	
76.549	2.153268	72.53068		3	90	0	0	-3.059797E-08	0.7	-0.001802485	-0.01388732	-0.02092483	
76.571	2.174965	72.55238		3	90	0	0	-3.059797E-08	0.7	-0.001939395	-0.01309945	-0.02135762	
76.594	2.198088	72.5755		3	90	0	0	-3.059797E-08	0.7	-0.001902107	-0.01247668	-0.02174419	
76.615	2.219321	72.59673		3	90	0	0	-3.059797E-08	0.7	-0.001684848	-0.01208377	-0.02198284	
76.637	2.241576	72.61899		3	90	0	0	-3.059797E-08	0.7	-0.001321416	-0.01185845	-0.02231433	
76.660	2.263285	72.64069		3	90	0	0	-3.059797E-08	0.7	-0.0007814914	-0.01177918	-0.02247138	
76.682	2.286091	72.66351		3	90	0	0	-3.059797E-08	0.7	-0.0001193099	-0.01176303	-0.02257069	
76.705	2.308579	72.68599		3	90	0	0	-3.059797E-08	0.7	0.0007268386	-0.01173641	-0.02247361	
76.728	2.332372	72.70979		3	90	0	0	-3.059797E-08	0.7	0.001580333	-0.0115934	-0.02217257	
76.749	2.352598	72.73001		3	90	0	0	-3.059797E-08	0.7	0.002404982	-0.01125109	-0.02168785	
76.770	2.373911	72.75132		3	90	0	0	-3.059797E-08	0.7	0.003153051	-0.01057196	-0.02114816	
76.789	2.393618	72.77103		3	90	0	0	-3.059797E-08	0.7	0.003773934	-0.009580772	-0.02051236	
76.815	2.418841	72.79625		3	90	0	0	-3.059797E-08	0.7	0.004233941	-0.008323188	-0.01981952	
76.838	2.441237	72.81865		3	90	0	0	-3.059797E-08	0.7	0.004501656	-0.006824179	-0.01899239	
76.860	2.46415	72.84156		3	90	0	0	-3.059797E-08	0.7	0.004570313	-0.00543326	-0.01794583	
76.896	2.500122	72.87753		3	90	0	0	-3.059797E-08	0.7	0.004505517	-0.004293294	-0.01692768	
76.914	2.518025	72.89543		3	90	0	0	-3.059797E-08	0.7	0.00434782	-0.00306334	-0.01531304	
76.932	2.536099	72.91351		3	90	0	0	-3.059797E-08	0.7	0.004175178	-0.002094773	-0.01423949	
76.951	2.555452	72.93286		3	90	0	0	-3.059797E-08	0.7	0.003976552	-0.001315868	-0.01315897	
76.971	2.574964	72.95238		3	90	0	0	-3.059797E-08	0.7	0.003869762	-0.0009258926	-0.0120556	
76.994	2.597928	72.97534		3	90	0	0	-3.059797E-08	0.7	0.003853709	-0.0007060513	-0.0109402	
77.014	2.617643	72.99506		3	90	0	0	-3.059797E-08	0.7	0.003953031	-0.0004937769	-0.00951395	
77.037	2.641179	73.01859		3	90	0	0	-3.059797E-08	0.7	0.00404277	-0.0003763554	-0.008279013	
77.059	2.663305	73.04072		3	90	0	0	-3.059797E-08	0.7	0.004048638	-0.0003733401	-0.006972839	
77.081	2.685141	73.06255		3	90	0	0	-3.059797E-08	0.7	0.003938321	-0.0005208576	-0.005695563	
77.102	2.706182	73.0836		3	90	0	0	-3.059797E-08	0.7	0.003752189	-0.0006912479	-0.004298138	
77.126	2.729944	73.10735		3	90	0	0	-3.059797E-08	0.7	0.003550887	-0.0008498086	-0.002894573	
77.148	2.752527	73.12994		3	90	0	0	-3.059797E-08	0.7	0.003328192	-0.0009277752	-0.001349889	
77.172	2.77603	73.15344		3	90	0	0	-3.059797E-08	0.7	0.003216282	-0.0009673098	1.183612E-05	
77.196	2.800324	73.17773		3	90	0	0	-3.059797E-08	0.7	0.003070259	-0.0008778725	0.001560752	
77.215	2.819248	73.19666		3	90	0	0	-3.059797E-08	0.7	0.002997476	-0.000778893	0.002945432	
77.236	2.840387	73.2178		3	90	0	0	-3.059797E-08	0.7	0.003023422	-0.0005752042	0.004208623	
77.258	2.862071	73.23948		3	90	0	0	-3.059797E-08	0.7	0.003133826	-0.0001808551	0.005369815	
77.281	2.885036	73.26244		3	90	0	0	-3.059797E-08	0.7	0.003257727	0.0001842388	0.006205818	
77.306	2.909693	73.2871		3	90	0	0	-3.059797E-08	0.7	0.003425253	0.0004798068	0.006778137	
77.326	2.930259	73.30767		3	90	0	0	-3.059797E-08	0.7	0.003586425	0.000519276	0.007114439	
77.350	2.954651	73.33206		3	90	0	0	-3.059797E-08	0.7	0.003596773	0.0002393078	0.007064606	
77.372	2.976121	73.35353		3	90	0	0	-3.059797E-08	0.7	0.003519963	-0.00035606	0.006599577	
77.393	2.996584	73.37399		3	90	0	0	-3.059797E-08	0.7	0.003288673	-0.001181045	0.005939309	
77.414	3.017741	73.39515		3	90	0	0	-3.059797E-08	0.7	0.002907448	-0.002191817	0.005069968	
77.438	3.042389	73.4198		3	90	0	0	-3.059797E-08	0.7	0.002496953	-0.003075957	0.004181215	
77.458	3.062292	73.4397		3	90	0	0	-3.059797E-08	0.7	0.002169986	-0.003817739	0.003245917	
77.483	3.087195	73.46461		3	90	0	0	-3.059797E-08	0.7	0.001899351	-0.004364296	0.002339889	
77.507	3.110662	73.48808		3	90	0	0	-3.059797E-08	0.7	0.001732304	-0.004660482	0.001622921	
77.524	3.128801	73.50621		3	90	0	0	-3.059797E-08	0.7	0.001753882	-0.004805657	0.001141833	
77.550	3.153666	73.53107		3	90	0	0	-3.059797E-08	0.7	0.001898813	-0.005071429	0.0005446103	
77.573	3.177024	73.55444		3	90	0	0	-3.059797E-08	0.7	0.002249767	-0.005370917	4.774437E-05	
77.593	3.196213	73.57362		3	90	0	0	-3.059797E-08	0.7	0.002774009	-0.005650379	-0.0004974422	
77.615	3.219461	73.59687		3	90	0	0	-3.059797E-08	0.7	0.003455967	-0.00602347	-0.001058551	
77.636	3.24006	73.61747		3	90	0	0	-3.059797E-08	0.7	0.004176854	-0.006430659	-0.001445434	
77.661	3.26465	73.64206		3	90	0	0	-3.059797E-08	0.7	0.005062477	-0.006855051	-0.001935625	
77.682	3.28647	73.66388		3	90	0	0	-3.059797E-08	0.7	0.006044177	-0.007095354	-0.002193887	
77.706	3.30981	73.68722		3	90	0	0	-3.059797E-08	0.7	0.007172335	-0.007426703	-0.002558116	
77.729	3.332752	73.71016		3	90	0	0	-3.059797E-08	0.7	0.008454824	-0.007569897	-0.002541782	
77.747	3.351446	73.72886		3	90	0	0	-3.059797E-08	0.7	0.009868916	-0.00770478	-0.002743713	
77.772	3.376424	73.75384		3	90	0	0	-3.059797E-08	0.7	0.01136328	-0.007978283	-0.002895931	
77.795	3.398716	73.77613		3	90	0	0	-3.059797E-08	0.7	0.01293031	-0.008084802	-0.002890743	
77.815	3.418867	73.79628		3	90	0	0	-3.059797E-08	0.7	0.01435744	-0.008229386	-0.003002492	
77.838	3.442506	73.81992		3	90	0	0	-3.059797E-08	0.7	0.01572291	-0.008489738	-0.003180784	
77.861	3.464648	73.84206		3	90	0	0	-3.059797E-08	0.7	0.01686127	-0.008822572	-0.003250475	
77.881	3.485177	73.86259		3	90	0	0	-3.059797E-08	0.7	0.01793166	-0.009186887	-0.003319727	
77.907	3.511261	73.88867		3	90	0	0	-3.059797E-08	0.7	0.0187777	-0.009530564	-0.003332899	
77.927	3.530904	73.90832		3	90	0	0	-3.059797E-08	0.7	0.01948308	-0.009884137	-0.003092914	
77.950	3.553936	73.93135		3	90	0	0	-3.059797E-08	0.7	0.02004968	-0.01033889	-0.003033208	
77.972	3.5759	73.95331		3	90	0	0	-3.059797E-08	0.7	0.02050428	-0.01081564	-0.002816014	
77.995	3.598378	73.97579		3	90	0	0	-3.059797E-08	0.7	0.02081594	-0.01119926	-0.002694615	
78.015	3.618882	73.99629		3	90	0	0	-3.059797E-08	0.7	0.02111698	-0.01152011	-0.002567405	
78.036	3.640055	74.01746		3	90	0	0	-3.059797E-08	0.7	0.02122754	-0.01174754	-0.002500874	
78.053	3.657234	74.03465		3	90	0	0	-3.059797E-08	0.7	0.02124142	-0.01192779	-0.002323538	
78.069	3.672713	74.05013		3	90	0	0	-3.059797E-08	0.7	0.02121849	-0.01193388	-0.002140932	
78.086	3.690743	74.06815		3	90	0	0	-3.059797E-08	0.7	0.02120933	-0.01192893	-0.001950412	
78.118	3.707317	74.08472		3	90	0	0	-3.059797E-08	0.7	0.02100974	-0.01191243	-0.001721153	
78.137	3.740765	74.11817		3	90	0	0	-3.059797E-08	0.7	0.02088209	-0.01184608	-0.001499315	
78.157	3.761073	74.13848		3	90	0	0	-3.059797E-08	0.7	0.02062748	-0.01172338	-0.001016996	
78.176	3.780375	74.15778		3	90	0	0	-3.059797E-08	0.7	0.01990476	-0.01145638	-0.0006712424	
78.193	3.797349	74.17476		3	90	0	0	-3.059797E-08	0.7	0.0194388	-0.01121518	-0.0004041926	
78.209	3.812896	74.19031		3	90	0	0	-3.059797E-08	0.7	0.01919571	-0.01106541	-0.0002292152	
78.227	3.830745	74.20815		3	90	0	0	-3.059797E-08	0.7	0.01862592	-0.01072508	2.010539E-05	
78.244	3.847916	74.22533		3	90	0	0	-3.059797E-08	0.7	0.01840565	-0.01049925	0.0002371743	
78.260	3.864378	74.24179		3	90	0	0	-3.059797E-08	0.7	0.01784468	-0.01012319	0.0005465359	
78.281	3.884981	74.26239		3	90	0	0	-3.059797E-08	0.7	0.01761194	-0.009909783	0.0007334859	
78.306	3.909632	74.28704		3	90	0	0	-3.059797E-08	0.7	0.01674202	-0.009355119	0.001158601	
78.324	3.928164	74.30557		3	90	0	0	-3.059797E-08	0.7	0.01625354	-0.008940797	0.001482137	
78.348	3.9519	74.32931		3	90	0	0	-3.059797E-08	0.7	0.01573995	-0.008580028	0.001773172	
78.372	3.975429	74.35284		3	90	0	0	-3.059797E-08	0.7	0.01528851	-0.008214206	0.00203945	
78.391	3.995356	74.37276		3	90	0	0	-3.059797E-08	0.7	0.01485294	-0.007925844	0.002283171	
78.413	4.01649	74.3939		3	90	0	0	-3.059797E-08	0.7	0.01444947	-0.007635665	0.002488944	
78.438	4.042552	74.41996		3	90	0	0	-3.059797E-08	0.7	0.01422038	-0.007369456	0.002654152	
78.456	4.060316	74.43773		3	90	0	0	-3.059797E-08	0.7	0.01407469	-0.007053589	0.002893625	
78.479	4.08264	74.46005		3	90	0	0	-3.059797E-08	0.7	0.0138871	-0.006770519	0.003098881	
78.502	4.106378	74.48379		3	90	0	0	-3.059797E-08	0.7	0.0137564	-0.006491957	0.003370642	
78.522	4.12599	74.5034		3	90	0	0	-3.059797E-08	0.7	0.01357814	-0.006165781	0.003748275	
78.547	4.150619	74.52803		3	90	0	0	-3.059797E-08	0.7	0.0134009	-0.005825652	0.004150257	
78.570	4.173919	74.55133		3	90	0	0	-3.059797E-08	0.7	0.01325356	-0.005489222	0.004572007	
78.591	4.19396	74.57137		3	90	0	0	-3.059797E-08	0.7	0.01305804	-0.005067206	0.004979268	
78.615	4.218852	74.59626		3	90	0	0	-3.059797E-08	0.7	0.01290082	-0.004713714	0.005244519	
78.638	4.241472	74.61888		3	90	0	0	-3.059797E-08	0.7	0.01280549	-0.004360681	0.005373282	
78.657	4.261578	74.63898		3	90	0	0	-3.059797E-08	0.7	0.01259415	-0.004173397	0.005386801	
78.680	4.283686	74.66109		3	90	0	0	-3.059797E-08	0.7	0.01238307	-0.003998563	0.005411012	
78.703	4.30624	74.68365		3	90	0	0	-3.059797E-08	0.7	0.01216679	-0.003956667	0.005291651	
78.725	4.328884	74.70629		3	90	0	0	-3.059797E-08	0.7	0.01207475	-0.00390205	0.005316775	
78.748	4.352136	74.72955		3	90	0	0	-3.059797E-08	0.7	0.01175725	-0.004002963	0.005125007	
78.771	4.374648	74.75206		3	90	0	0	-3.059797E-08	0.7	0.01153436	-0.004193143	0.00482128	
78.791	4.394747	74.77216		3	90	0	0	-3.059797E-08	0.7	0.01140338	-0.004390743	0.004621065	
78.812	4.416234	74.79365		3	90	0	0	-3.059797E-08	0.7	0.0113636	-0.004642827	0.004410516	
78.838	4.44188	74.81929		3	90	0	0	-3.059797E-08	0.7	0.01145016	-0.004990717	0.004277448	
78.858	4.46187	74.83928		3	90	0	0	-3.059797E-08	0.7	0.01164343	-0.005348762	0.004155156	
78.880	4.48385	74.86126		3	90	0	0	-3.059797E-08	0.7	0.01192951	-0.005790457	0.003936647	
78.905	4.509315	74.88673		3	90	0	0	-3.059797E-08	0.7	0.0122988	-0.006222659	0.003686324	
78.925	4.528571	74.90598		3	90	0	0	-3.059797E-08	0.7	0.0126756	-0.006579613	0.003492662	
78.949	4.552706	74.93011		3	90	0	0	-3.059797E-08	0.7	0.01309366	-0.007001479	0.003306194	
78.971	4.575101	74.95251		3	90	0	0	-3.059797E-08	0.7	0.01353414	-0.007305949	0.003126119	
78.990	4.593856	74.97127		3	90	0	0	-3.059797E-08	0.7	0.01393101	-0.007553973	0.002939007	
79.013	4.617126	74.99454		3	90	0	0	-3.059797E-08	0.7	0.01424725	-0.007722481	0.002740758	
79.037	4.641601	75.01901		3	90	0	0	-3.059797E-08	0.7	0.01452652	-0.007875768	0.002595463	
79.062	4.665938	75.04335		3	90	0	0	-3.059797E-08	0.7	0.01473469	-0.007993324	0.002558117	
79.083	4.687625	75.06503		3	90	0	0	-3.059797E-08	0.7	0.01491711	-0.008025502	0.002450169	
79.102	4.706167	75.08358		3	90	0	0	-3.059797E-08	0.7	0.01501544	-0.008006012	0.002328127	
79.125	4.728424	75.10583		3	90	0	0	-3.059797E-08	0.7	0.01512828	-0.007947061	0.002344997	
79.149	4.753021	75.13043		3	90	0	0	-3.059797E-08	0.7	0.01522764	-0.007867482	0.002280434	
79.171	4.775028	75.15244		3	90	0	0	-3.059797E-08	0.7	0.01531526	-0.0077686	0.002083201	
79.194	4.797544	75.17496		3	90	0	0	-3.059797E-08	0.7	0.01533374	-0.007626781	0.00192214	
79.219	4.822537	75.19994		3	90	0	0	-3.059797E-08	0.7	0.01524865	-0.007329521	0.001744607	
79.240	4.843441	75.22085		3	90	0	0	-3.059797E-08	0.7	0.0151345	-0.0069477	0.001714014	
79.259	4.86266	75.24007		3	90	0	0	-3.059797E-08	0.7	0.01494839	-0.006401424	0.001784652	
